1479956890.00
64.000000
-0.00
-0.00
-0.00
-0.00
-0.00
-0.00
-0.00
-0.00
-0.00
-0.00
0.00
0.01
0.01
-0.00
-0.03
-0.05
-0.05
0.00
0.13
0.36
0.66
1.01
1.38
1.72
2.05
2.39
2.78
3.24
3.83
4.48
5.14
5.71
6.16
6.48
6.75
7.09
7.59
8.37
9.36
10.41
11.38
12.16
12.80
13.48
14.44
15.90
18.11
20.85
23.79
26.55
28.88
30.85
32.83
35.38
38.95
44.00
50.14
56.67
62.79
67.96
72.19
76.13
80.80
87.06
95.65
106.00
116.96
127.19
135.69
142.38
148.18
155.00
162.21
172.45
186.25
203.16
221.16
236.66
245.08
242.18
225.38
194.72
153.22
104.77
53.27
1.21
-50.83
-103.61
-158.06
-214.03
-269.50
-320.24
-361.52
-388.99
-400.22
-395.61
-378.11
-352.25
-322.40
-291.77
-261.84
-233.32
-206.63
-182.30
-161.03
-143.15
-128.18
-114.88
-101.85
-88.06
-73.54
-59.03
-45.74
-34.65
-26.09
-19.64
-14.35
-9.19
-3.48
2.84
9.25
14.98
19.38
22.23
23.82
24.76
25.70
27.02
28.71
30.49
31.92
32.68
32.65
31.97
30.94
29.87
29.03
28.51
28.24
28.06
27.72
27.04
25.96
24.53
22.92
21.36
20.02
18.99
18.20
17.57
16.98
16.35
15.70
15.09
14.55
14.07
13.61
13.10
12.52
11.95
11.48
11.18
11.04
10.94
10.76
10.42
9.96
9.47
9.07
8.81
8.62
8.39
8.04
7.57
7.05
6.59
6.28
6.16
6.17
6.26
6.35
6.37
6.28
6.03
5.62
5.09
4.56
4.14
3.94
3.96
4.11
4.26
4.28
4.12
3.82
3.50
3.27
3.23
3.36
3.62
3.90
4.13
4.24
4.22
4.10
3.90
3.65
3.38
3.11
2.85
2.64
2.48
2.40
2.38
2.40
2.42
2.44
2.48
2.53
2.59
2.60
2.53
2.34
2.06
1.73
1.42
1.19
1.10
1.16
1.37
1.65
1.91
2.04
1.94
1.62
1.16
0.71
0.41
0.32
0.43
0.65
0.91
1.16
1.43
1.72
2.03
2.29
2.41
2.32
2.00
1.54
1.10
0.85
0.86
1.09
1.40
1.64
1.74
1.71
1.67
1.70
1.80
1.90
1.87
1.64
1.24
0.76
0.33
0.08
0.05
0.22
0.54
0.90
1.17
1.27
1.15
0.86
0.53
0.28
0.20
0.31
0.55
0.82
1.06
1.25
1.34
1.33
1.18
0.91
0.56
0.26
0.13
0.22
0.50
0.82
1.04
1.05
0.89
0.66
0.50
0.49
0.63
0.85
1.04
1.16
1.23
1.29
1.38
1.48
1.52
1.42
1.15
0.77
0.40
0.13
0.03
0.06
0.14
0.19
0.20
0.21
0.27
0.44
0.69
0.94
1.09
1.06
0.83
0.46
0.09
-0.16
-0.19
0.02
0.38
0.75
1.01
1.07
0.96
0.74
0.52
0.37
0.31
0.33
0.39
0.48
0.57
0.65
0.71
0.75
0.74
0.70
0.64
0.57
0.51
0.44
0.34
0.17
-0.06
-0.30
-0.49
-0.55
-0.44
-0.19
0.10
0.34
0.45
0.41
0.26
0.03
-0.21
-0.44
-0.62
-0.67
-0.55
-0.25
0.21
0.71
1.10
1.28
1.19
0.90
0.53
0.19
-0.03
-0.12
-0.12
-0.06
0.04
0.17
0.31
0.43
0.52
0.52
0.46
0.34
0.22
0.14
0.12
0.16
0.28
0.49
0.76
1.07
1.35
1.48
1.41
1.12
0.67
0.21
-0.13
-0.29
-0.29
-0.21
-0.14
-0.10
-0.08
-0.00
0.15
0.36
0.57
0.71
0.70
0.55
0.29
0.02
-0.21
-0.37
-0.47
-0.57
-0.70
-0.86
-1.00
-1.04
-0.97
-0.82
-0.67
-0.56
-0.50
-0.39
-0.13
0.31
0.83
1.26
1.46
1.36
1.01
0.59
0.27
0.16
0.27
0.52
0.78
0.92
0.91
0.75
0.50
0.24
0.04
-0.08
-0.09
-0.01
0.10
0.21
0.26
0.24
0.17
0.10
0.04
0.01
-0.00
-0.05
-0.15
-0.27
-0.34
-0.28
-0.06
0.27
0.62
0.87
0.94
0.84
0.64
0.42
0.28
0.23
0.26
0.30
0.32
0.30
0.25
0.18
0.12
0.05
-0.06
-0.19
-0.33
-0.42
-0.40
-0.26
-0.03
0.20
0.35
0.35
0.22
0.02
-0.18
-0.34
-0.45
-0.52
-0.55
-0.51
-0.38
-0.20
-0.01
0.12
0.11
-0.03
-0.27
-0.55
-0.81
-1.00
-1.06
-0.98
-0.76
-0.43
-0.03
0.34
0.62
0.79
0.86
0.86
0.81
0.74
0.66
0.56
0.45
0.32
0.19
0.09
0.02
0.02
0.08
0.18
0.25
0.25
0.15
-0.00
-0.11
-0.08
0.11
0.38
0.57
0.55
0.30
-0.07
-0.39
-0.49
-0.35
-0.08
0.16
0.26
0.22
0.16
0.21
0.44
0.75
0.96
0.93
0.61
0.11
-0.38
-0.68
-0.71
-0.55
-0.33
-0.19
-0.18
-0.27
-0.38
-0.45
-0.44
-0.36
-0.23
-0.07
0.08
0.19
0.22
0.17
0.08
0.03
0.06
0.19
0.36
0.51
0.57
0.53
0.41
0.28
0.18
0.10
0.05
0.02
-0.00
0.02
0.10
0.22
0.34
0.39
0.32
0.11
-0.21
-0.56
-0.82
-0.91
-0.81
-0.56
-0.23
0.08
0.33
0.47
0.49
0.37
0.14
-0.13
-0.36
-0.44
-0.33
-0.08
0.21
0.43
0.55
0.58
0.62
0.70
0.78
0.78
0.64
0.38
0.11
-0.02
0.04
0.25
0.43
0.44
0.23
-0.13
-0.45
-0.58
-0.51
-0.31
-0.13
-0.08
-0.13
-0.21
-0.22
-0.12
0.01
0.06
-0.05
-0.30
-0.60
-0.80
-0.81
-0.61
-0.29
0.05
0.34
0.52
0.56
0.50
0.38
0.27
0.20
0.23
0.34
0.49
0.59
0.55
0.35
0.02
-0.35
-0.66
-0.83
-0.82
-0.64
-0.34
0.02
0.36
0.61
0.71
0.62
0.38
0.06
-0.25
-0.46
-0.53
-0.49
-0.42
-0.38
-0.42
-0.49
-0.55
-0.52
-0.40
-0.23
-0.08
0.01
0.02
0.01
0.00
0.02
0.07
0.10
0.13
0.18
0.29
0.44
0.56
0.57
0.41
0.15
-0.12
-0.26
-0.20
0.03
0.32
0.55
0.64
0.59
0.44
0.23
0.02
-0.19
-0.37
-0.54
-0.68
-0.78
-0.81
-0.74
-0.53
-0.23
0.10
0.34
0.40
0.24
-0.07
-0.40
-0.60
-0.58
-0.36
-0.02
0.30
0.51
0.60
0.60
0.61
0.69
0.82
0.92
0.91
0.77
0.54
0.31
0.16
0.14
0.22
0.30
0.29
0.17
-0.02
-0.19
-0.26
-0.22
-0.11
0.00
0.03
-0.03
-0.19
-0.39
-0.59
-0.73
-0.80
-0.79
-0.72
-0.60
-0.45
-0.25
0.00
0.32
0.66
0.90
0.93
0.72
0.33
-0.05
-0.25
-0.15
0.18
0.54
0.73
0.61
0.24
-0.23
-0.59
-0.69
-0.57
-0.32
-0.12
-0.05
-0.10
-0.18
-0.16
-0.01
0.23
0.43
0.46
0.30
-0.04
-0.44
-0.75
-0.89
-0.84
-0.65
-0.40
-0.16
0.01
0.11
0.19
0.31
0.46
0.61
0.66
0.55
0.28
-0.05
-0.30
-0.39
-0.33
-0.19
-0.05
0.06
0.17
0.32
0.54
0.78
0.95
0.97
0.83
0.57
0.27
0.02
-0.17
-0.27
-0.29
-0.27
-0.21
-0.14
-0.07
-0.03
-0.03
-0.09
-0.20
-0.33
-0.46
-0.53
-0.51
-0.36
-0.14
0.07
0.16
0.09
-0.12
-0.36
-0.51
-0.52
-0.42
-0.34
-0.38
-0.57
-0.79
-0.89
-0.74
-0.36
0.12
0.51
0.69
0.65
0.49
0.33
0.22
0.15
0.07
-0.01
-0.05
0.01
0.18
0.42
0.63
0.74
0.74
0.68
0.62
0.60
0.58
0.51
0.35
0.10
-0.16
-0.37
-0.46
-0.45
-0.37
-0.28
-0.20
-0.14
-0.07
0.03
0.14
0.23
0.27
0.23
0.09
-0.11
-0.33
-0.50
-0.57
-0.50
-0.29
0.01
0.35
0.65
0.83
0.85
0.71
0.42
0.04
-0.36
-0.69
-0.89
-0.93
-0.79
-0.55
-0.25
0.02
0.22
0.36
0.45
0.52
0.55
0.55
0.50
0.41
0.32
0.29
0.33
0.43
0.54
0.56
0.45
0.21
-0.08
-0.31
-0.38
-0.26
-0.03
0.18
0.26
0.17
-0.07
-0.37
-0.67
-0.93
-1.16
-1.34
-1.45
-1.42
-1.22
-0.85
-0.36
0.14
0.52
0.72
0.72
0.54
0.28
0.01
-0.18
-0.25
-0.21
-0.07
0.13
0.37
0.62
0.84
0.97
0.94
0.73
0.38
0.03
-0.19
-0.18
0.02
0.31
0.55
0.65
0.61
0.47
0.31
0.14
-0.06
-0.29
-0.55
-0.79
-0.94
-0.92
-0.73
-0.39
-0.02
0.27
0.39
0.30
0.07
-0.21
-0.43
-0.55
-0.60
-0.65
-0.74
-0.83
-0.79
-0.54
-0.10
0.37
0.67
0.64
0.31
-0.14
-0.47
-0.52
-0.30
0.08
0.47
0.73
0.83
0.78
0.63
0.45
0.27
0.16
0.14
0.20
0.30
0.39
0.42
0.37
0.26
0.10
-0.08
-0.31
-0.57
-0.82
-0.97
-0.95
-0.76
-0.45
-0.12
0.18
0.39
0.53
0.64
0.70
0.70
0.60
0.38
0.05
-0.34
-0.71
-0.99
-1.08
-0.93
-0.54
-0.01
0.52
0.86
0.91
0.65
0.21
-0.25
-0.56
-0.69
-0.66
-0.54
-0.38
-0.15
0.18
0.60
1.04
1.38
1.52
1.47
1.27
1.05
0.87
0.74
0.60
0.38
0.06
-0.31
-0.62
-0.82
-0.84
-0.74
-0.57
-0.41
-0.29
-0.24
-0.20
-0.13
0.00
0.22
0.50
0.76
0.92
0.89
0.66
0.27
-0.19
-0.59
-0.83
-0.86
-0.68
-0.37
-0.02
0.23
0.31
0.20
-0.06
-0.38
-0.64
-0.81
-0.87
-0.86
-0.80
-0.69
-0.51
-0.24
0.07
0.34
0.49
0.47
0.30
0.04
-0.22
-0.39
-0.41
-0.24
0.09
0.50
0.85
0.98
0.80
0.33
-0.27
-0.76
-0.96
-0.81
-0.40
0.08
0.42
0.54
0.45
0.24
0.03
-0.12
-0.23
-0.35
-0.50
-0.66
-0.77
-0.78
-0.65
-0.42
-0.17
0.02
0.12
0.12
0.06
-0.02
-0.11
-0.20
-0.28
-0.34
-0.37
-0.37
-0.35
-0.34
-0.34
-0.32
-0.27
-0.18
-0.08
-0.02
-0.01
-0.03
-0.04
0.01
0.11
0.23
0.33
0.39
0.45
0.55
0.69
0.86
0.99
1.04
1.00
0.90
0.80
0.70
0.59
0.44
0.25
0.03
-0.16
-0.26
-0.25
-0.15
-0.00
0.16
0.34
0.53
0.73
0.90
0.94
0.75
0.25
-0.51
-1.39
-2.17
-2.63
-2.62
-2.16
-1.38
-0.50
0.25
0.73
0.90
0.83
0.66
0.54
0.58
0.82
1.27
1.86
2.51
3.17
3.77
4.29
4.69
4.94
5.06
5.11
5.21
5.41
5.67
5.81
5.59
4.81
3.44
1.69
-0.15
-1.78
-3.02
-3.87
-4.35
-4.52
-4.41
-4.06
-3.55
-3.05
-2.71
-2.65
-2.81
-3.05
-3.12
-2.88
-2.31
-1.53
-0.74
-0.12
0.26
0.46
0.66
0.99
1.53
2.21
2.86
3.23
3.07
2.09
0.06
-3.14
-7.33
-11.93
-16.00
-18.55
-18.85
-16.82
-13.02
-8.43
-3.99
-0.31
2.45
4.46
5.90
6.86
7.34
7.37
7.14
6.97
7.17
7.83
8.84
9.88
10.71
11.17
11.33
11.37
11.49
11.83
12.42
13.17
13.89
14.29
14.12
13.20
11.56
9.37
7.01
4.83
3.16
2.16
1.85
2.15
2.88
3.77
4.47
4.53
3.57
1.36
-1.98
-6.04
-10.21
-13.90
-16.71
-18.52
-19.49
-19.88
-19.91
-19.70
-19.19
-18.27
-16.87
-15.07
-13.15
-11.60
-11.03
-12.05
-15.09
-20.21
-26.78
-33.46
-38.41
-39.82
-36.62
-29.02
-18.55
-7.44
2.20
9.14
13.32
15.47
16.52
17.03
17.13
16.68
15.69
14.46
13.45
13.04
13.28
13.87
14.39
14.48
14.01
13.11
12.09
11.26
10.82
10.82
11.12
11.48
11.63
11.44
10.91
10.20
9.54
9.13
9.05
9.25
9.53
9.67
9.47
8.86
7.93
6.86
5.87
5.06
4.35
3.53
2.30
0.47
-1.96
-4.77
-7.67
-10.35
-12.62
-14.41
-15.71
-16.52
-16.87
-16.83
-16.58
-16.51
-17.06
-18.53
-20.84
-23.37
-25.04
-24.78
-21.95
-16.73
-10.10
-3.42
2.11
5.90
8.07
9.18
9.79
10.22
10.47
10.42
10.08
9.62
9.34
9.44
9.92
10.59
11.16
11.40
11.24
10.76
10.19
9.80
9.82
10.33
11.24
12.26
13.02
13.17
12.54
11.23
9.51
7.80
6.41
5.48
4.91
4.45
3.82
2.82
1.44
-0.20
-1.88
-3.38
-4.54
-5.33
-5.84
-6.26
-6.82
-7.71
-8.99
-10.55
-12.17
-13.59
-14.60
-15.14
-15.29
-15.26
-15.33
-15.82
-16.97
-18.91
-21.48
-24.14
-26.05
-26.21
-23.96
-19.22
-12.70
-5.61
0.76
5.53
8.51
10.03
10.69
10.91
10.86
10.47
9.72
8.78
8.01
7.74
8.08
8.83
9.56
9.84
9.47
8.54
7.40
6.43
5.90
5.80
5.94
6.08
6.04
5.77
5.35
4.89
4.48
4.15
3.90
3.70
3.49
3.24
2.95
2.62
2.35
2.21
2.26
2.47
2.71
2.82
2.75
2.52
2.28
2.17
2.21
2.31
2.30
2.04
1.51
0.83
0.20
-0.20
-0.27
-0.07
0.28
0.56
0.53
-0.09
-1.52
-3.91
-7.12
-10.73
-14.06
-16.31
-16.95
-15.83
-13.27
-9.90
-6.41
-3.30
-0.78
1.14
2.55
3.47
3.90
3.92
3.67
3.42
3.41
3.72
4.27
4.85
5.26
5.43
5.41
5.33
5.35
5.52
5.82
6.22
6.68
7.18
7.70
8.15
8.43
8.44
8.13
7.54
6.77
5.93
5.12
4.36
3.66
3.02
2.44
1.86
1.19
0.32
-0.82
-2.20
-3.66
-4.96
-5.88
-6.34
-6.40
-6.24
-6.07
-6.03
-6.13
-6.27
-6.31
-6.16
-5.84
-5.48
-5.28
-5.47
-6.25
-7.80
-10.24
-13.55
-17.40
-21.12
-23.78
-24.46
-22.67
-18.57
-13.00
-7.08
-1.80
2.30
5.18
7.13
8.41
9.14
9.31
8.96
8.30
7.70
7.48
7.77
8.41
9.06
9.41
9.28
8.77
8.16
7.73
7.65
7.92
8.35
8.74
8.94
8.90
8.66
8.23
7.61
6.78
5.79
4.74
3.77
3.01
2.48
2.11
1.82
1.58
1.39
1.26
1.17
0.97
0.53
-0.20
-1.12
-1.99
-2.53
-2.61
-2.31
-1.92
-1.73
-1.97
-2.65
-3.60
-4.60
-5.46
-6.10
-6.57
-7.00
-7.62
-8.72
-10.67
-13.70
-17.70
-22.01
-25.51
-26.93
-25.46
-21.08
-14.71
-7.82
-1.76
2.70
5.53
7.24
8.36
9.16
9.56
9.36
8.55
7.40
6.39
5.94
6.17
6.90
7.73
8.26
8.26
7.77
6.99
6.18
5.55
5.15
4.96
4.90
4.92
5.01
5.16
5.33
5.49
5.57
5.54
5.40
5.13
4.72
4.11
3.28
2.26
1.16
0.11
-0.76
-1.40
-1.78
-1.93
-1.90
-1.75
-1.57
-1.47
-1.53
-1.75
-2.00
-2.09
-1.88
-1.39
-0.82
-0.41
-0.36
-0.71
-1.27
-1.76
-1.97
-1.82
-1.44
-1.00
-0.72
-0.80
-1.40
-2.70
-4.77
-7.52
-10.53
-13.14
-14.65
-14.56
-12.86
-9.97
-6.59
-3.38
-0.76
1.15
2.44
3.25
3.70
3.85
3.73
3.46
3.13
2.88
2.76
2.80
2.94
3.12
3.26
3.31
3.24
3.12
3.02
3.02
3.17
3.42
3.70
3.91
4.00
3.98
3.92
3.89
3.93
4.05
4.20
4.32
4.37
4.33
4.24
4.11
4.00
3.92
3.88
3.87
3.89
3.93
3.95
3.87
3.58
2.98
2.06
0.89
-0.33
-1.42
-2.20
-2.65
-2.83
-2.87
-2.91
-3.03
-3.26
-3.55
-3.83
-4.07
-4.25
-4.42
-4.67
-5.13
-5.97
-7.34
-9.29
-11.71
-14.25
-16.33
-17.28
-16.57
-14.02
-9.97
-5.15
-0.46
3.34
5.87
7.17
7.53
7.32
6.83
6.18
5.46
4.74
4.16
3.85
3.86
4.13
4.47
4.72
4.77
4.65
4.49
4.43
4.55
4.83
5.16
5.41
5.53
5.53
5.54
5.68
6.02
6.56
7.16
7.68
7.98
7.98
7.70
7.19
6.48
5.52
4.22
2.53
0.55
-1.43
-3.01
-3.84
-3.83
-3.19
-2.40
-1.94
-2.05
-2.63
-3.27
-3.55
-3.25
-2.51
-1.74
-1.47
-2.11
-3.97
-7.21
-11.91
-17.92
-24.63
-30.83
-34.98
-35.64
-32.21
-25.22
-16.22
-7.21
0.20
5.24
8.07
9.40
9.94
10.14
10.13
9.92
9.60
9.38
9.48
9.99
10.77
11.53
12.00
12.05
11.75
11.37
11.23
11.58
12.43
13.48
14.22
14.06
12.66
10.05
6.66
3.18
0.26
-1.67
-2.56
-2.64
-2.26
-1.73
-1.24
-0.91
-0.86
-1.19
-1.98
-3.17
-4.58
-5.86
-6.72
-6.98
-6.70
-6.16
-5.72
-5.60
-5.85
-6.21
-6.33
-5.86
-4.68
-3.03
-1.41
-0.56
-1.17
-3.71
-8.19
-13.96
-19.80
-24.19
-25.75
-23.90
-19.03
-12.43
-5.74
-0.29
3.35
5.43
6.65
7.66
8.72
9.73
10.45
10.81
10.99
11.33
12.08
13.25
14.54
15.57
16.04
15.90
15.39
14.88
14.80
15.39
16.65
18.23
19.54
19.97
19.10
16.94
13.92
10.82
8.36
7.02
6.80
7.31
8.01
8.46
8.48
8.13
7.50
6.60
5.23
3.14
0.17
-3.64
-8.02
-12.50
-16.68
-20.35
-23.57
-26.61
-29.77
-33.25
-37.07
-41.07
-45.06
-48.95
-52.71
-56.21
-58.85
-59.49
-56.75
-49.60
-38.04
-23.49
-8.35
4.79
14.21
19.56
21.75
22.22
22.12
21.89
21.32
20.13
18.35
16.46
15.11
14.68
15.08
15.81
16.25
15.98
14.99
13.60
12.29
11.41
11.09
11.19
11.41
11.41
10.99
10.12
8.96
7.72
6.66
5.90
5.42
5.07
4.68
4.09
3.31
2.44
1.65
1.12
0.97
1.22
1.75
2.38
2.91
3.16
3.05
2.65
2.11
1.60
1.33
1.37
1.70
2.20
2.67
2.93
2.91
2.68
2.44
2.44
2.81
3.47
4.14
4.40
3.85
2.18
-0.76
-4.95
-10.14
-15.73
-20.83
-24.34
-25.36
-23.58
-19.41
-13.94
-8.42
-3.85
-0.62
1.46
2.78
3.68
4.21
4.25
3.74
2.85
1.96
1.47
1.63
2.36
3.32
4.12
4.49
4.43
4.18
4.03
4.16
4.58
5.08
5.43
5.44
5.12
4.58
4.00
3.50
3.08
2.70
2.30
1.89
1.56
1.40
1.47
1.72
2.03
2.24
2.25
2.04
1.67
1.23
0.83
0.54
0.41
0.46
0.71
1.12
1.61
2.02
2.23
2.20
2.00
1.78
1.65
1.65
1.60
1.24
0.23
-1.68
-4.57
-8.25
-12.27
-15.97
-18.60
-19.59
-18.67
-16.06
-12.31
-8.16
-4.25
-1.00
1.44
3.11
4.08
4.44
4.30
3.82
3.21
2.70
2.45
2.52
2.84
3.27
3.69
3.99
4.10
4.05
3.90
3.73
3.63
3.59
3.56
3.43
3.19
2.90
2.72
2.79
3.14
3.65
4.10
4.31
4.23
3.96
3.65
3.45
3.38
3.43
3.56
3.79
4.13
4.53
4.83
4.85
4.43
3.61
2.60
1.67
1.04
0.71
0.51
0.19
-0.42
-1.32
-2.35
-3.32
-4.11
-4.73
-5.34
-6.11
-7.15
-8.48
-10.06
-11.84
-13.71
-15.46
-16.75
-17.14
-16.27
-14.05
-10.77
-7.05
-3.60
-0.91
0.87
1.95
2.68
3.36
4.05
4.65
5.01
5.08
5.00
4.94
5.04
5.31
5.66
5.93
6.06
6.11
6.20
6.46
6.91
7.47
7.99
8.37
8.55
8.53
8.23
7.57
6.48
5.00
3.32
1.75
0.55
-0.21
-0.64
-0.97
-1.35
-1.80
-2.18
-2.32
-2.15
-1.79
-1.45
-1.35
-1.56
-1.98
-2.37
-2.53
-2.32
-1.78
-1.12
-0.59
-0.37
-0.49
-0.83
-1.19
-1.37
-1.31
-1.04
-0.71
-0.52
-0.66
-1.37
-2.91
-5.45
-8.99
-13.15
-17.18
-20.13
-21.18
-19.98
-16.81
-12.41
-7.71
-3.47
-0.03
2.57
4.48
5.81
6.55
6.67
6.22
5.41
4.56
3.97
3.83
4.12
4.67
5.27
5.72
5.91
5.86
5.66
5.44
5.30
5.29
5.38
5.48
5.50
5.40
5.23
5.05
4.90
4.77
4.59
4.30
3.87
3.32
2.69
2.05
1.47
0.98
0.59
0.31
0.11
-0.03
-0.11
-0.09
0.07
0.37
0.71
0.89
0.72
0.10
-0.87
-1.88
-2.59
-2.72
-2.19
-1.17
0.01
0.98
1.46
1.39
0.89
0.25
-0.20
-0.22
0.27
1.10
1.89
2.13
1.23
-1.24
-5.43
-10.97
-16.92
-21.99
-24.85
-24.67
-21.44
-16.02
-9.77
-4.03
0.36
3.24
4.90
5.84
6.34
6.49
6.27
5.71
5.04
4.53
4.40
4.67
5.18
5.65
5.85
5.69
5.27
4.84
4.63
4.79
5.30
5.96
6.53
6.82
6.79
6.54
6.22
5.90
5.52
4.97
4.17
3.12
1.96
0.83
-0.18
-1.05
-1.80
-2.41
-2.79
-2.85
-2.54
-1.94
-1.27
-0.71
-0.39
-0.29
-0.31
-0.35
-0.36
-0.39
-0.50
-0.70
-0.90
-0.97
-0.82
-0.47
-0.10
0.06
-0.15
-0.74
-1.54
-2.30
-2.84
-3.12
-3.27
-3.56
-4.24
-5.50
-7.41
-9.90
-12.71
-15.40
-17.34
-17.90
-16.71
-13.80
-9.71
-5.27
-1.31
1.65
3.51
4.52
5.06
5.42
5.68
5.83
5.83
5.67
5.45
5.24
5.09
4.95
4.78
4.53
4.20
3.83
3.51
3.34
3.39
3.67
4.15
4.70
5.19
5.50
5.57
5.46
5.31
5.26
5.40
5.70
6.07
6.39
6.63
6.87
7.21
7.73
8.41
9.16
9.86
10.44
10.92
11.37
11.84
12.28
12.56
12.46
11.78
10.43
8.45
5.96
3.15
0.18
-2.85
-5.88
-8.89
-11.84
-14.68
-17.32
-19.66
-21.60
-23.03
-23.86
-24.02
-23.48
-22.26
-20.53
-18.52
-16.58
-15.02
-14.09
-13.85
-14.19
-14.86
-15.51
-15.82
-15.53
-14.47
-12.59
-9.90
-6.53
-2.72
1.22
4.94
8.10
10.47
11.96
12.58
12.49
11.90
11.04
10.07
9.16
8.39
7.81
7.44
7.23
7.13
7.05
6.91
6.66
6.28
5.81
5.33
4.90
4.56
4.30
4.04
3.70
3.25
2.73
2.24
1.87
1.65
1.55
1.47
1.34
1.13
0.89
0.69
0.60
0.60
0.65
0.64
0.57
0.45
0.36
0.35
0.42
0.51
0.50
0.34
0.05
-0.28
-0.55
-0.69
-0.74
-0.79
-0.89
-1.06
-1.24
-1.34
-1.33
-1.22
-1.07
-0.92
-0.78
-0.62
-0.38
-0.06
0.33
0.74
1.09
1.34
1.43
1.36
1.15
0.86
0.57
0.37
0.29
0.33
0.48
0.67
0.85
0.96
0.97
0.87
0.68
0.48
0.36
0.35
0.41
0.47
0.43
0.28
0.07
-0.09
-0.08
0.09
0.37
0.63
0.78
0.81
0.78
0.75
0.76
0.78
0.77
0.72
0.64
0.59
0.61
0.71
0.81
0.85
0.76
0.56
0.30
0.05
-0.11
-0.15
-0.06
0.17
0.46
0.71
0.80
0.61
0.14
-0.55
-1.30
-1.95
-2.45
-2.82
-3.16
-3.55
-4.01
-4.46
-4.79
-4.91
-4.84
-4.62
-4.33
-4.00
-3.60
-3.08
-2.40
-1.59
-0.74
0.09
0.82
1.44
1.95
2.34
2.57
2.62
2.49
2.26
2.03
1.88
1.82
1.83
1.85
1.87
1.92
2.06
2.33
2.68
3.01
3.24
3.33
3.31
3.29
3.34
3.48
3.66
3.80
3.85
3.79
3.70
3.63
3.62
3.62
3.53
3.27
2.81
2.22
1.59
0.97
0.32
-0.50
-1.61
-3.03
-4.58
-5.98
-6.98
-7.49
-7.62
-7.63
-7.75
-8.05
-8.38
-8.44
-7.97
-6.87
-5.26
-3.40
-1.60
-0.08
0.98
1.48
1.35
0.56
-0.75
-2.24
-3.43
-3.86
-3.28
-1.80
0.16
2.07
3.51
4.34
4.68
4.80
4.91
5.06
5.21
5.23
5.06
4.75
4.39
4.08
3.90
3.82
3.81
3.79
3.74
3.69
3.70
3.86
4.23
4.80
5.48
6.17
6.72
7.01
6.96
6.62
6.07
5.41
4.62
3.53
1.84
-0.70
-4.11
-8.12
-12.15
-15.62
-18.10
-19.47
-19.90
-19.68
-19.02
-17.98
-16.53
-14.70
-12.61
-10.48
-8.52
-6.81
-5.26
-3.70
-1.94
0.04
2.17
4.25
6.05
7.40
8.22
8.54
8.47
8.17
7.78
7.37
7.02
6.73
6.48
6.27
6.10
5.95
5.82
5.68
5.50
5.29
5.05
4.83
4.67
4.61
4.63
4.72
4.80
4.83
4.77
4.62
4.45
4.31
4.31
4.50
4.88
5.36
5.71
5.67
5.02
3.69
1.84
-0.27
-2.42
-4.51
-6.64
-8.93
-11.39
-13.80
-15.80
-17.02
-17.26
-16.55
-15.08
-13.10
-10.82
-8.45
-6.20
-4.31
-2.98
-2.29
-2.14
-2.30
-2.49
-2.49
-2.16
-1.48
-0.46
0.84
2.30
3.77
5.08
6.09
6.73
7.01
6.98
6.69
6.13
5.31
4.31
3.26
2.38
1.86
1.81
2.18
2.81
3.46
3.92
4.09
3.97
3.65
3.25
2.89
2.62
2.45
2.37
2.36
2.41
2.49
2.57
2.60
2.55
2.42
2.26
2.18
2.28
2.66
3.34
4.23
5.08
5.48
5.04
3.58
1.21
-1.59
-4.23
-6.22
-7.43
-8.08
-8.53
-9.07
-9.73
-10.30
-10.54
-10.33
-9.70
-8.81
-7.79
-6.69
-5.51
-4.25
-2.95
-1.74
-0.72
-0.01
0.36
0.41
0.24
0.06
0.06
0.44
1.23
2.32
3.45
4.38
4.98
5.26
5.37
5.45
5.55
5.58
5.42
4.97
4.29
3.55
2.97
2.66
2.63
2.76
2.94
3.09
3.22
3.40
3.63
3.92
4.23
4.54
4.85
5.13
5.36
5.46
5.41
5.22
4.99
4.83
4.84
5.08
5.59
6.39
7.51
8.86
10.12
10.72
10.08
7.82
4.06
-0.60
-5.30
-9.30
-12.29
-14.39
-15.97
-17.35
-18.59
-19.49
-19.81
-19.51
-18.75
-17.88
-17.16
-16.68
-16.32
-15.85
-15.06
-13.87
-12.33
-10.56
-8.70
-6.81
-4.83
-2.64
-0.17
2.56
5.39
8.07
10.33
12.00
13.03
13.47
13.43
13.06
12.46
11.74
11.04
10.52
10.32
10.54
11.14
11.93
12.64
12.99
12.85
12.32
11.72
11.44
11.77
12.71
13.91
14.83
15.02
14.28
12.86
11.33
10.33
10.40
11.84
14.62
18.26
21.70
23.42
21.77
15.59
4.80
-9.30
-24.32
-37.57
-46.97
-51.74
-52.34
-50.06
-46.29
-42.05
-37.84
-33.90
-30.34
-27.31
-24.90
-23.02
-21.39
-19.63
-17.40
-14.49
-10.93
-6.95
-2.88
0.91
4.13
6.68
8.65
10.31
11.94
13.69
15.49
17.09
18.08
18.20
17.42
16.02
14.49
13.39
13.05
13.50
14.38
15.16
15.36
14.76
13.54
12.21
11.31
11.20
11.86
12.94
13.89
14.27
13.89
12.86
11.54
10.36
9.66
9.73
10.74
12.75
15.51
18.24
19.63
18.18
12.84
3.62
-8.12
-20.19
-30.30
-37.03
-40.21
-40.69
-39.70
-38.11
-36.14
-33.54
-30.09
-25.92
-21.56
-17.66
-14.65
-12.49
-10.76
-8.94
-6.61
-3.80
-0.82
1.82
3.72
4.80
5.33
5.76
6.52
7.79
9.42
11.05
12.26
12.77
12.59
11.90
11.05
10.36
9.99
9.94
10.04
10.12
10.07
9.93
9.84
9.97
10.34
10.80
11.13
11.13
10.78
10.30
10.01
10.16
10.75
11.51
12.03
12.02
11.44
10.56
9.81
9.57
10.11
11.51
13.68
16.42
19.22
21.17
21.11
17.93
11.14
1.31
-10.00
-20.76
-29.23
-34.67
-37.45
-38.58
-39.10
-39.43
-39.40
-38.53
-36.56
-33.74
-30.75
-28.26
-26.59
-25.47
-24.24
-22.13
-18.76
-14.28
-9.29
-4.58
-0.75
2.02
3.99
5.65
7.45
9.58
11.91
14.09
15.74
16.65
16.80
16.38
15.62
14.74
13.85
12.97
12.10
11.27
10.56
10.05
9.80
9.80
9.90
9.92
9.72
9.23
8.54
7.81
7.26
7.03
7.16
7.55
7.97
8.22
8.14
7.71
7.05
6.32
5.72
5.38
5.41
5.93
6.98
8.46
10.01
10.97
10.61
8.41
4.37
-0.90
-6.40
-11.22
-14.79
-17.09
-18.47
-19.30
-19.76
-19.82
-19.35
-18.34
-16.90
-15.24
-13.54
-11.82
-10.07
-8.25
-6.48
-4.90
-3.68
-2.89
-2.49
-2.34
-2.32
-2.33
-2.27
-2.04
-1.48
-0.46
1.07
3.04
5.16
7.08
8.46
9.09
9.01
8.43
7.72
7.23
7.20
7.67
8.49
9.40
10.13
10.57
10.78
10.99
11.48
12.39
13.62
14.88
15.78
16.12
16.01
15.86
16.21
17.42
19.47
21.92
24.08
25.40
25.65
25.09
24.32
24.06
24.96
27.54
32.02
37.96
43.95
47.54
45.84
36.55
19.27
-3.99
-29.15
-51.46
-67.22
-74.94
-75.46
-71.08
-64.34
-57.04
-50.05
-43.73
-38.33
-34.29
-31.95
-31.29
-31.74
-32.33
-32.07
-30.37
-27.37
-23.81
-20.72
-18.96
-18.87
-20.17
-22.18
-24.12
-25.44
-25.99
-25.95
-25.54
-24.81
-23.54
-21.30
-17.62
-12.28
-5.39
2.54
10.73
18.32
24.53
28.85
31.10
31.50
30.52
28.76
26.75
24.87
23.26
21.93
20.83
19.88
19.01
18.17
17.25
16.17
14.89
13.45
11.99
10.71
9.78
9.26
9.09
9.08
8.99
8.66
8.03
7.18
6.30
5.58
5.15
5.08
5.33
5.78
6.33
6.87
7.32
7.64
7.82
7.87
7.77
7.48
6.96
6.20
5.18
3.91
2.40
0.65
-1.35
-3.56
-5.88
-8.15
-10.18
-11.79
-12.88
-13.41
-13.42
-13.04
-12.43
-11.78
-11.24
-10.93
-10.83
-10.85
-10.78
-10.38
-9.49
-8.02
-6.02
-3.65
-1.15
1.22
3.23
4.74
5.72
6.22
6.33
6.15
5.75
5.15
4.41
3.62
2.93
2.50
2.41
2.63
3.02
3.41
3.69
3.85
3.99
4.21
4.50
4.81
4.98
4.90
4.54
3.96
3.31
2.73
2.32
2.11
2.04
2.08
2.21
2.43
2.78
3.23
3.76
4.30
4.83
5.26
5.46
5.15
4.08
2.13
-0.52
-3.34
-5.72
-7.20
-7.70
-7.56
-7.25
-7.10
-7.09
-6.97
-6.40
-5.32
-3.94
-2.62
-1.70
-1.24
-1.10
-1.02
-0.76
-0.26
0.41
1.05
1.46
1.50
1.14
0.45
-0.38
-1.15
-1.71
-1.99
-2.01
-1.85
-1.58
-1.24
-0.83
-0.34
0.22
0.82
1.36
1.78
2.08
2.34
2.66
3.09
3.63
4.20
4.71
5.15
5.58
6.10
6.73
7.37
7.85
8.00
7.83
7.53
7.37
7.60
8.27
9.22
10.15
10.82
11.14
11.18
11.18
11.35
11.86
12.83
14.35
16.45
18.87
20.94
21.53
19.50
14.20
5.92
-4.08
-14.02
-22.38
-28.46
-32.50
-35.28
-37.53
-39.47
-40.80
-41.04
-39.94
-37.69
-34.82
-31.85
-29.09
-26.49
-23.83
-20.91
-17.62
-14.10
-10.60
-7.38
-4.58
-2.22
-0.16
1.80
3.82
5.95
8.12
10.20
11.99
13.38
14.31
14.86
15.15
15.33
15.43
15.40
15.15
14.62
13.81
12.86
11.90
11.13
10.62
10.43
10.50
10.76
11.11
11.40
11.52
11.39
11.03
10.55
10.14
9.98
10.20
10.76
11.48
12.11
12.46
12.43
12.10
11.71
11.52
11.81
12.84
14.73
17.32
20.06
21.93
21.64
18.13
11.02
0.96
-10.51
-21.49
-30.37
-36.35
-39.52
-40.59
-40.39
-39.55
-38.42
-37.16
-35.85
-34.61
-33.47
-32.32
-30.90
-28.90
-26.05
-22.20
-17.42
-12.01
-6.39
-1.10
3.38
6.72
8.86
9.99
10.47
10.74
11.08
11.59
12.18
12.67
12.92
12.92
12.78
12.64
12.56
12.47
12.14
11.38
10.12
8.55
7.07
6.10
5.91
6.48
7.55
8.74
9.73
10.41
10.78
10.92
10.86
10.56
10.01
9.30
8.67
8.40
8.68
9.49
10.53
11.42
11.87
11.79
11.35
10.89
10.76
11.24
12.51
14.54
17.03
19.28
20.24
18.78
14.22
6.70
-2.70
-12.34
-20.69
-26.90
-31.07
-33.86
-36.03
-37.91
-39.32
-39.79
-38.98
-36.91
-33.93
-30.52
-27.04
-23.69
-20.51
-17.49
-14.63
-11.98
-9.53
-7.24
-5.06
-2.93
-0.81
1.33
3.51
5.70
7.81
9.72
11.32
12.48
13.17
13.42
13.34
13.05
12.65
12.21
11.78
11.39
11.03
10.66
10.21
9.64
8.99
8.41
8.08
8.18
8.67
9.33
9.82
9.81
9.22
8.24
7.28
6.76
6.88
7.58
8.54
9.34
9.71
9.59
9.16
8.71
8.53
8.79
9.57
10.84
12.42
13.86
14.38
13.11
9.39
3.24
-4.53
-12.48
-19.08
-23.34
-25.13
-25.11
-24.25
-23.29
-22.53
-21.83
-20.91
-19.69
-18.30
-17.00
-15.94
-15.08
-14.21
-13.07
-11.49
-9.52
-7.32
-5.18
-3.32
-1.90
-0.92
-0.27
0.27
0.93
1.84
3.04
4.45
5.91
7.26
8.42
9.36
10.09
10.58
10.72
10.37
9.47
8.13
6.63
5.37
4.67
4.66
5.21
6.01
6.71
7.06
7.01
6.69
6.29
5.97
5.76
5.61
5.42
5.13
4.79
4.49
4.33
4.33
4.47
4.69
4.98
5.40
6.07
6.98
7.93
8.46
8.02
6.23
3.09
-0.95
-5.23
-9.15
-12.39
-15.02
-17.29
-19.41
-21.29
-22.63
-22.98
-22.06
-19.86
-16.65
-12.90
-9.07
-5.54
-2.53
-0.09
1.81
3.23
4.22
4.77
4.87
4.57
4.03
3.48
3.15
3.18
3.56
4.15
4.77
5.28
5.63
5.84
6.00
6.10
6.12
5.94
5.50
4.82
4.02
3.28
2.78
2.60
2.72
3.04
3.42
3.74
3.90
3.87
3.67
3.35
2.99
2.67
2.45
2.34
2.31
2.27
2.17
1.96
1.69
1.45
1.36
1.50
1.90
2.54
3.36
4.21
4.87
4.96
4.13
2.15
-0.84
-4.39
-7.85
-10.72
-12.80
-14.26
-15.34
-16.11
-16.34
-15.61
-13.63
-10.51
-6.82
-3.35
-0.74
0.78
1.42
1.63
1.81
2.13
2.53
2.85
2.95
2.87
2.75
2.75
2.97
3.34
3.68
3.80
3.64
3.29
2.99
2.99
3.42
4.22
5.13
5.82
6.02
5.69
4.96
4.08
3.31
2.76
2.48
2.45
2.67
3.15
3.86
4.67
5.46
6.12
6.67
7.27
8.10
9.19
10.36
11.31
11.78
11.80
11.68
11.87
12.70
14.19
16.04
17.79
19.08
19.81
20.15
20.48
21.10
22.26
24.13
26.83
30.29
34.04
37.04
37.84
35.07
28.17
17.67
5.12
-7.58
-18.95
-28.33
-35.85
-41.98
-47.03
-51.00
-53.68
-54.99
-55.22
-54.90
-54.55
-54.38
-54.26
-53.88
-52.96
-51.41
-49.46
-47.52
-45.95
-44.98
-44.50
-44.13
-43.26
-41.24
-37.55
-31.88
-24.24
-15.02
-4.92
5.09
14.05
21.21
26.23
29.25
30.71
31.16
31.03
30.53
29.71
28.58
27.22
25.81
24.57
23.59
22.85
22.13
21.15
19.73
17.89
15.86
13.98
12.55
11.67
11.20
10.82
10.23
9.29
8.08
6.81
5.73
4.94
4.39
3.96
3.55
3.17
2.89
2.79
2.85
2.95
2.92
2.64
2.15
1.58
1.13
0.91
0.93
1.08
1.23
1.28
1.26
1.21
1.22
1.32
1.50
1.71
1.89
1.97
1.88
1.52
0.85
-0.15
-1.40
-2.76
-4.05
-5.11
-5.83
-6.15
-6.05
-5.52
-4.58
-3.33
-1.95
-0.64
0.39
1.01
1.21
1.06
0.70
0.29
-0.07
-0.33
-0.49
-0.56
-0.57
-0.54
-0.46
-0.30
-0.05
0.27
0.60
0.84
0.93
0.83
0.63
0.43
0.31
0.31
0.38
0.45
0.49
0.52
0.57
0.67
0.78
0.85
0.84
0.78
0.72
0.72
0.78
0.87
0.93
0.92
0.86
0.81
0.78
0.80
0.85
0.95
1.12
1.35
1.60
1.77
1.77
1.62
1.41
1.29
1.38
1.69
2.11
2.45
2.56
2.40
2.04
1.61
1.27
1.09
1.03
1.01
0.91
0.65
0.24
-0.25
-0.74
-1.14
-1.41
-1.58
-1.68
-1.74
-1.79
-1.81
-1.80
-1.72
-1.56
-1.31
-1.01
-0.73
-0.54
-0.49
-0.55
-0.63
-0.65
-0.58
-0.46
-0.40
-0.45
-0.58
-0.72
-0.79
-0.76
-0.69
-0.68
-0.85
-1.21
-1.71
-2.29
-2.84
-3.32
-3.70
-3.97
-4.09
-4.07
-3.91
-3.66
-3.39
-3.20
-3.12
-3.14
-3.18
-3.10
-2.78
-2.15
-1.27
-0.25
0.75
1.64
2.36
2.93
3.38
3.70
3.85
3.80
3.61
3.38
3.23
3.25
3.40
3.55
3.58
3.43
3.14
2.85
2.74
2.93
3.41
4.09
4.81
5.36
5.63
5.62
5.47
5.48
5.91
6.93
8.45
10.17
11.69
12.69
13.12
13.18
13.29
13.78
14.78
16.21
17.86
19.46
20.74
21.36
20.85
18.76
14.79
9.04
2.04
-5.33
-12.10
-17.52
-21.12
-22.74
-22.45
-20.61
-17.91
-15.53
-14.94
-17.50
-23.97
-34.15
-46.65
-59.04
-68.22
-71.16
-65.89
-52.43
-33.07
-11.88
6.66
19.35
25.36
26.35
25.31
24.94
26.41
29.14
31.51
32.25
31.31
29.71
28.91
29.83
32.25
35.16
37.46
38.66
38.99
38.71
37.44
33.84
26.30
13.88
-2.83
-21.77
-40.42
-57.03
-71.24
-83.50
-93.74
-100.28
-100.07
-90.23
-70.17
-42.67
-13.25
11.97
28.77
36.29
36.78
34.01
31.39
30.62
31.67
33.58
35.41
36.75
37.67
38.43
39.05
39.45
39.56
39.43
39.51
40.52
43.03
46.92
50.86
52.38
48.83
38.61
22.47
3.56
-13.83
-26.46
-33.92
-38.96
-45.93
-58.27
-76.67
-98.58
-119.33
-133.87
-138.33
-130.80
-111.52
-82.75
-48.48
-13.87
15.94
37.23
48.69
51.63
49.18
44.86
41.33
39.94
40.84
43.57
47.29
51.02
53.77
54.77
53.93
51.82
49.58
48.48
49.52
52.91
57.84
62.42
64.16
60.84
51.58
37.62
22.08
8.61
-0.85
-7.59
-15.92
-31.13
-56.53
-91.34
-130.60
-166.90
-193.00
-203.84
-197.41
-174.51
-138.29
-93.72
-47.09
-4.98
27.27
46.95
54.71
53.87
48.85
43.39
39.63
38.14
38.67
40.67
43.46
46.20
47.91
47.75
45.47
41.72
37.88
35.45
35.33
37.23
39.79
41.16
39.88
35.71
29.77
24.12
20.69
20.25
21.88
23.18
21.24
13.71
-0.53
-21.02
-45.73
-71.10
-92.46
-104.88
-104.64
-90.77
-65.86
-35.57
-6.66
15.40
28.24
32.82
32.18
29.62
27.29
25.93
25.53
26.10
27.92
31.19
35.54
39.89
42.79
43.25
41.24
37.88
35.14
35.00
38.50
44.99
51.88
55.42
52.13
40.44
21.63
-0.35
-20.57
-35.22
-43.40
-47.39
-51.29
-58.91
-71.97
-89.49
-108.42
-124.78
-134.67
-135.01
-124.07
-102.00
-71.29
-36.61
-3.67
22.51
39.20
46.66
47.45
44.95
41.84
39.41
37.84
37.09
37.28
38.65
41.11
43.94
45.99
46.28
44.59
41.65
38.84
37.55
38.49
41.28
44.56
46.52
45.72
41.73
35.40
28.39
22.10
16.68
10.59
1.23
-13.71
-34.84
-60.51
-87.33
-111.11
-127.99
-135.01
-130.44
-114.08
-87.60
-54.74
-20.82
8.60
29.48
40.51
43.26
41.04
37.29
34.33
33.01
33.30
34.96
37.82
41.57
45.57
48.74
50.01
48.83
45.61
41.67
38.99
39.46
44.02
51.86
60.06
64.24
60.18
45.79
22.45
-5.02
-30.18
-47.78
-56.01
-57.10
-56.05
-58.04
-66.20
-80.66
-99.04
-117.73
-132.84
-140.72
-138.34
-124.00
-98.20
-64.31
-27.98
4.45
28.06
41.00
44.64
42.37
37.78
33.32
29.98
27.84
26.80
26.89
28.14
30.26
32.42
33.56
32.97
30.60
27.15
23.76
21.46
20.74
21.39
22.67
23.63
23.60
22.36
20.25
17.91
16.02
14.99
14.84
15.29
15.87
16.19
16.04
15.43
14.46
13.26
11.86
10.31
8.67
7.12
5.87
5.04
4.52
3.99
3.00
1.23
-1.27
-4.04
-6.35
-7.46
-6.97
-5.07
-2.59
-0.85
-1.36
-5.51
-14.11
-27.04
-42.88
-58.94
-71.65
-77.51
-74.33
-62.19
-43.61
-22.78
-4.05
9.53
17.09
19.72
19.54
18.54
17.81
17.45
17.07
16.41
15.59
15.08
15.34
16.50
18.18
19.71
20.40
19.88
18.30
16.25
14.52
13.69
13.91
14.79
15.63
15.73
14.69
12.61
9.98
7.43
5.56
4.67
4.71
5.48
6.55
7.32
6.99
4.54
-1.04
-10.34
-22.89
-36.78
-48.79
-55.40
-54.14
-44.75
-29.53
-12.51
2.18
11.89
16.20
16.64
15.57
14.95
15.62
17.35
19.43
21.25
22.67
23.83
24.91
25.93
26.69
27.10
27.30
27.89
29.49
32.13
34.72
35.20
31.37
22.06
8.06
-7.93
-22.44
-32.89
-38.61
-41.04
-42.68
-45.71
-51.12
-58.54
-66.84
-74.61
-80.27
-81.98
-77.93
-66.89
-49.22
-27.38
-5.28
12.89
24.37
28.81
28.08
25.09
22.41
21.31
21.69
22.75
23.68
24.16
24.36
24.64
25.20
26.00
26.80
27.19
26.94
26.11
25.04
24.24
24.04
24.35
24.57
23.80
21.26
16.72
10.66
4.11
-1.75
-5.98
-8.16
-8.42
-7.11
-4.71
-1.77
0.76
1.36
-2.02
-11.18
-26.51
-45.95
-64.91
-77.65
-79.44
-68.86
-48.59
-24.39
-2.64
12.29
19.47
20.95
20.06
19.45
20.07
21.36
22.31
22.32
21.69
21.24
21.73
23.40
25.82
28.25
29.85
30.15
29.17
27.56
26.35
26.50
28.32
31.09
33.16
32.61
28.15
19.84
9.17
-1.52
-9.96
-14.72
-15.48
-12.77
-7.62
-1.34
4.16
6.20
1.59
-12.47
-36.85
-69.13
-103.28
-130.92
-144.01
-137.87
-113.23
-76.17
-35.80
-0.84
23.36
35.95
39.68
38.67
36.28
34.11
32.34
30.75
29.57
29.62
31.57
35.29
39.74
43.29
44.66
43.45
40.31
36.78
34.56
34.91
38.04
42.87
47.16
48.27
44.21
34.53
20.81
6.13
-6.06
-13.36
-15.47
-14.29
-13.07
-14.91
-21.65
-33.28
-48.52
-65.63
-83.25
-100.24
-115.00
-124.81
-126.06
-115.64
-92.74
-60.28
-24.45
7.42
29.67
40.42
41.77
38.15
33.92
31.60
31.42
32.28
33.02
33.29
33.50
34.31
35.91
37.77
39.00
38.79
36.91
34.08
31.71
31.22
33.19
36.62
39.03
37.37
29.51
15.49
-2.12
-19.18
-31.65
-37.23
-36.15
-30.58
-23.51
-17.47
-13.98
-13.75
-17.18
-24.41
-34.88
-46.63
-56.28
-59.99
-55.15
-41.78
-22.81
-3.07
12.77
22.06
24.89
23.54
20.93
19.25
19.30
20.73
22.77
24.93
27.16
29.58
32.16
34.55
36.18
36.60
35.67
33.83
31.97
31.11
31.96
34.43
37.52
39.55
38.81
34.31
26.28
16.09
5.57
-3.88
-12.16
-20.45
-30.57
-43.91
-60.49
-78.68
-95.96
-109.86
-118.67
-121.47
-117.70
-106.92
-89.03
-64.99
-37.28
-9.84
13.12
28.64
36.04
36.97
34.32
30.84
28.14
26.51
25.55
24.86
24.43
24.43
24.92
25.62
26.05
25.78
24.71
23.20
21.83
21.16
21.38
22.22
23.06
23.18
22.16
20.07
17.50
15.32
14.29
14.69
16.12
17.61
18.10
16.86
13.98
10.39
7.61
7.00
9.11
13.21
17.25
18.48
14.31
3.31
-14.27
-36.26
-58.95
-77.82
-88.69
-88.94
-78.40
-59.61
-36.98
-15.44
1.24
11.43
15.72
16.04
14.50
12.55
10.77
9.32
8.43
8.57
10.16
13.13
16.77
19.90
21.51
21.19
19.29
16.85
14.98
14.50
15.56
17.67
19.95
21.44
21.55
20.23
17.99
15.71
14.22
14.04
15.11
16.82
18.24
18.54
17.29
14.73
11.65
9.05
7.68
7.48
7.50
5.92
0.67
-9.71
-25.45
-45.22
-66.42
-85.69
-99.62
-105.35
-101.27
-87.49
-66.07
-40.70
-15.84
4.54
18.13
24.76
26.03
24.27
21.53
18.95
16.81
15.04
13.69
13.03
13.26
14.26
15.49
16.28
16.13
14.91
13.03
11.15
9.89
9.54
10.01
10.79
11.29
11.02
9.90
8.23
6.59
5.54
5.38
6.00
6.97
7.77
7.98
7.48
6.46
5.30
4.36
3.89
3.89
4.22
4.62
4.83
4.66
4.03
2.99
1.68
0.33
-0.81
-1.51
-1.65
-1.27
-0.58
0.13
0.55
0.51
0.01
-0.75
-1.53
-2.15
-2.52
-2.71
-2.81
-2.92
-3.07
-3.29
-3.62
-4.11
-4.83
-5.79
-6.90
-8.08
-9.23
-10.35
-11.58
-13.04
-14.74
-16.43
-17.60
-17.64
-16.08
-12.84
-8.32
-3.31
1.31
4.88
7.12
8.14
8.26
7.85
7.13
6.25
5.31
4.44
3.79
3.47
3.52
3.84
4.23
4.49
4.46
4.11
3.53
2.94
2.56
2.54
2.83
3.27
3.62
3.76
3.67
3.48
3.29
3.16
3.00
2.73
2.30
1.80
1.36
1.10
1.03
1.06
1.09
1.06
0.96
0.82
0.63
0.31
-0.16
-0.79
-1.42
-1.90
-2.08
-1.96
-1.66
-1.39
-1.29
-1.37
-1.55
-1.70
-1.74
-1.61
-1.36
-1.02
-0.61
-0.15
0.36
0.91
1.44
1.94
2.37
2.72
2.99
3.19
3.30
3.31
3.27
3.23
3.26
3.41
3.70
4.06
4.37
4.55
4.59
4.56
4.60
4.79
5.09
5.37
5.42
5.06
4.17
2.73
0.73
-1.78
-4.67
-7.72
-10.62
-13.07
-14.83
-15.83
-16.09
-15.72
-14.75
-13.25
-11.27
-8.99
-6.67
-4.61
-3.02
-1.93
-1.22
-0.64
0.00
0.78
1.68
2.58
3.42
4.17
4.83
5.41
5.85
6.05
5.88
5.32
4.47
3.54
2.78
2.36
2.34
2.63
3.07
3.53
3.95
4.31
4.67
5.01
5.33
5.56
5.67
5.60
5.37
5.03
4.64
4.32
4.16
4.19
4.42
4.80
5.29
5.82
6.27
6.45
6.16
5.25
3.71
1.61
-0.94
-3.85
-7.12
-10.66
-14.20
-17.20
-19.01
-19.07
-17.28
-14.04
-10.17
-6.53
-3.78
-2.13
-1.49
-1.57
-2.09
-2.75
-3.30
-3.49
-3.07
-1.93
-0.17
1.96
4.03
5.67
6.62
6.85
6.50
5.79
4.95
4.18
3.63
3.44
3.76
4.64
5.95
7.34
8.31
8.39
7.34
5.20
2.18
-1.46
-5.54
-9.84
-13.93
-17.15
-18.67
-17.91
-14.82
-10.03
-4.62
0.31
4.05
6.45
7.76
8.34
8.40
7.96
6.99
5.60
4.13
3.03
2.68
3.20
4.40
5.88
7.28
8.34
9.08
9.62
10.14
10.73
11.38
11.91
12.18
12.05
11.53
10.90
10.63
11.33
13.36
16.48
19.58
20.99
19.03
12.72
2.18
-11.47
-26.43
-40.76
-52.66
-60.60
-63.42
-60.53
-52.26
-40.06
-26.27
-13.49
-3.70
2.37
5.25
6.24
6.62
7.13
7.98
9.04
10.21
11.58
13.23
15.18
17.16
18.72
19.51
19.44
18.77
17.99
17.49
17.42
17.62
17.87
18.12
18.62
19.73
21.46
23.18
23.60
21.28
15.15
4.95
-8.71
-24.60
-41.03
-56.05
-67.49
-73.29
-72.03
-63.53
-49.25
-31.99
-15.07
-1.23
8.12
13.06
14.64
14.21
12.90
11.54
10.59
10.35
10.89
12.08
13.64
15.19
16.42
17.19
17.50
17.50
17.33
17.10
16.86
16.56
16.17
15.67
15.14
14.83
15.14
16.46
18.84
21.71
23.83
23.60
19.62
11.33
-0.70
-14.89
-29.12
-41.37
-50.19
-54.86
-55.38
-52.22
-46.14
-38.09
-29.08
-20.07
-11.91
-5.13
0.01
3.53
5.68
6.84
7.47
7.93
8.43
8.97
9.44
9.73
9.82
9.85
10.05
10.63
11.71
13.22
14.96
16.54
17.63
17.89
17.21
15.74
13.84
12.09
11.13
11.46
13.26
16.13
19.13
20.89
20.00
15.41
6.87
-4.94
-18.49
-31.80
-42.82
-49.92
-52.10
-49.22
-41.90
-31.47
-19.67
-8.31
1.07
7.55
10.92
11.61
10.52
8.74
7.24
6.67
7.25
8.82
10.93
13.02
14.66
15.68
16.14
16.28
16.35
16.51
16.79
17.13
17.35
17.38
17.19
16.88
16.73
17.16
18.68
21.55
25.40
28.94
30.10
26.67
17.25
2.05
-16.94
-36.57
-53.62
-65.79
-72.13
-72.91
-69.04
-61.63
-51.80
-40.80
-29.98
-20.60
-13.40
-8.33
-4.63
-1.31
2.29
6.27
10.20
13.58
16.20
18.16
19.76
21.13
22.14
22.50
21.95
20.56
18.66
16.78
15.46
15.14
16.09
18.31
21.34
24.12
25.14
22.90
16.55
6.29
-6.51
-19.81
-31.54
-40.15
-44.79
-45.27
-41.80
-34.94
-25.63
-15.17
-5.13
3.03
8.40
10.80
10.78
9.32
7.42
5.91
5.25
5.59
6.85
8.76
10.93
12.97
14.52
15.46
15.92
16.24
16.79
17.80
19.21
20.66
21.72
22.14
21.90
21.27
20.67
20.38
20.58
21.39
23.01
25.56
28.78
31.72
32.76
30.10
22.64
10.54
-4.67
-20.77
-35.65
-48.03
-57.49
-64.04
-67.72
-68.41
-66.16
-61.53
-55.78
-50.50
-46.86
-45.07
-44.15
-42.44
-38.38
-31.15
-21.16
-9.83
1.09
10.09
16.40
20.12
21.89
22.51
22.60
22.46
22.17
21.76
21.32
20.99
20.86
20.87
20.88
20.66
20.05
19.03
17.72
16.41
15.40
14.92
14.98
15.36
15.68
15.57
14.81
13.34
11.24
8.56
5.36
1.70
-2.31
-6.36
-10.03
-12.84
-14.42
-14.61
-13.49
-11.34
-8.56
-5.57
-2.77
-0.58
0.64
0.60
-0.75
-3.20
-6.17
-8.82
-10.29
-10.08
-8.28
-5.52
-2.63
-0.21
1.63
3.25
5.19
7.70
10.58
13.32
15.34
16.36
16.48
16.09
15.56
15.08
14.67
14.23
13.82
13.72
14.37
16.11
18.86
21.90
23.92
23.38
19.12
10.82
-0.82
-14.25
-27.64
-39.30
-48.12
-53.53
-55.46
-54.11
-49.93
-43.59
-35.95
-27.97
-20.52
-14.20
-9.24
-5.49
-2.58
-0.03
2.55
5.35
8.31
11.14
13.43
14.82
15.16
14.59
13.53
12.49
11.91
11.93
12.38
12.91
13.16
13.05
12.83
13.01
13.99
15.72
17.60
18.58
17.56
13.88
7.53
-0.85
-10.24
-19.53
-27.69
-33.72
-36.72
-36.03
-31.51
-23.82
-14.38
-5.02
2.60
7.51
9.64
9.64
8.48
7.04
5.93
5.40
5.48
6.07
6.98
7.98
8.89
9.59
10.04
10.26
10.28
10.12
9.78
9.33
8.87
8.51
8.32
8.28
8.30
8.33
8.49
9.02
10.11
11.62
12.96
13.20
11.41
7.18
0.84
-6.56
-13.74
-19.65
-23.85
-26.33
-27.31
-26.86
-24.84
-21.17
-16.06
-10.21
-4.63
-0.34
2.06
2.60
1.82
0.55
-0.46
-0.76
-0.32
0.64
1.82
3.02
4.21
5.48
6.93
8.50
10.06
11.38
12.33
12.87
13.13
13.19
13.12
12.93
12.60
12.24
12.17
12.78
14.41
17.05
20.05
22.10
21.50
16.74
7.18
-6.50
-22.33
-37.55
-49.46
-56.14
-56.90
-52.26
-43.60
-32.73
-21.47
-11.36
-3.48
1.68
4.29
5.03
4.81
4.44
4.47
5.04
6.08
7.50
9.19
11.06
12.95
14.60
15.73
16.20
16.11
15.80
15.73
16.15
17.01
17.96
18.51
18.37
17.72
17.18
17.52
19.17
21.77
24.04
24.17
20.50
12.18
-0.47
-16.05
-32.45
-47.40
-58.90
-65.39
-66.06
-60.93
-51.00
-38.11
-24.59
-12.63
-3.72
1.76
4.42
5.45
6.03
6.91
8.25
9.77
11.10
12.09
12.85
13.68
14.84
16.35
17.95
19.25
19.92
19.89
19.27
18.40
17.56
16.93
16.66
16.94
18.06
20.21
23.17
25.95
26.87
24.00
15.94
2.57
-14.67
-33.09
-49.61
-61.62
-67.66
-67.51
-61.91
-52.20
-39.91
-26.66
-14.00
-3.27
4.61
9.30
11.06
10.68
9.16
7.56
6.60
6.65
7.63
9.15
10.71
11.90
12.58
12.84
12.95
13.17
13.64
14.33
15.11
15.81
16.28
16.41
16.12
15.44
14.59
14.02
14.26
15.69
18.19
20.91
22.42
21.18
16.08
6.96
-5.30
-19.02
-32.14
-42.70
-49.18
-50.72
-47.26
-39.57
-29.20
-18.23
-8.70
-2.07
1.24
1.88
1.19
0.61
1.13
3.04
5.98
9.33
12.41
14.80
16.32
16.99
16.98
16.57
16.09
15.83
15.99
16.50
17.16
17.68
17.87
17.84
17.98
18.89
20.95
24.02
27.07
28.44
26.30
19.44
7.84
-7.23
-23.52
-38.59
-50.40
-57.76
-60.53
-59.43
-55.77
-51.03
-46.38
-42.27
-38.38
-33.86
-27.95
-20.50
-12.23
-4.39
1.89
6.15
8.76
10.59
12.35
14.29
16.13
17.43
17.95
17.89
17.71
17.89
18.56
19.49
20.19
20.21
19.42
18.09
16.75
15.95
15.99
16.78
17.96
19.03
19.58
19.50
18.97
18.47
18.47
19.27
20.79
22.65
24.28
25.15
25.01
23.86
21.93
19.55
17.06
14.73
12.65
10.59
7.98
4.04
-1.88
-9.78
-18.80
-27.39
-33.80
-36.85
-36.43
-33.53
-29.74
-26.59
-24.98
-25.00
-26.11
-27.54
-28.61
-28.96
-28.51
-27.47
-26.32
-25.78
-26.72
-29.87
-35.43
-42.64
-49.59
-53.67
-52.32
-44.19
-29.80
-11.59
6.93
22.49
33.17
38.88
40.91
41.07
40.69
40.25
39.55
38.26
36.42
34.52
33.27
33.18
34.35
36.49
39.03
41.26
42.32
41.27
37.27
29.92
19.62
7.66
-4.12
-13.88
-20.42
-23.50
-23.73
-22.19
-19.96
-17.87
-16.40
-15.80
-16.17
-17.47
-19.47
-21.79
-23.96
-25.59
-26.43
-26.48
-25.95
-25.21
-24.60
-24.39
-24.58
-24.98
-25.20
-24.93
-23.99
-22.48
-20.69
-18.92
-17.29
-15.58
-13.35
-10.10
-5.59
-0.04
5.90
11.37
15.60
18.19
19.18
18.97
18.06
16.90
15.79
14.83
14.05
13.41
12.91
12.51
12.16
11.85
11.52
11.15
10.72
10.23
9.72
9.21
8.69
8.20
7.70
7.16
6.59
5.98
5.35
4.76
4.23
3.81
3.49
3.24
3.03
2.82
2.58
2.32
2.09
1.98
2.05
2.30
2.65
2.92
2.93
2.56
1.80
0.76
-0.35
-1.34
-2.05
-2.46
-2.65
-2.73
-2.81
-2.96
-3.15
-3.33
-3.42
-3.38
-3.21
-2.92
-2.53
-2.05
-1.47
-0.80
-0.10
0.57
1.11
1.46
1.60
1.55
1.35
1.07
0.77
0.53
0.38
0.30
0.26
0.20
0.08
-0.09
-0.26
-0.40
-0.50
-0.60
-0.72
-0.88
-1.06
-1.20
-1.24
-1.15
-0.93
-0.61
-0.26
0.07
0.31
0.42
0.40
0.28
0.14
0.07
0.12
0.32
0.61
0.94
1.20
1.34
1.30
1.11
0.83
0.51
0.23
0.02
-0.09
-0.11
-0.02
0.15
0.35
0.50
0.56
0.50
0.37
0.23
0.15
0.12
0.10
0.06
0.02
-0.01
-0.00
0.03
0.01
-0.12
-0.35
-0.61
-0.80
-0.88
-0.85
-0.83
-0.89
-1.07
-1.34
-1.60
-1.78
-1.86
-1.88
-1.93
-2.06
-2.24
-2.41
-2.45
-2.26
-1.79
-1.11
-0.30
0.51
1.22
1.77
2.16
2.40
2.49
2.46
2.31
2.07
1.77
1.50
1.29
1.22
1.29
1.47
1.67
1.84
1.95
2.00
2.01
1.99
1.93
1.81
1.64
1.48
1.42
1.48
1.65
1.82
1.90
1.82
1.62
1.33
0.99
0.62
0.20
-0.22
-0.57
-0.73
-0.67
-0.45
-0.28
-0.36
-0.89
-1.93
-3.38
-4.98
-6.37
-7.18
-7.11
-6.09
-4.31
-2.19
-0.20
1.25
1.98
2.09
1.84
1.54
1.35
1.30
1.31
1.29
1.20
1.06
0.95
0.91
0.94
1.01
1.09
1.18
1.29
1.44
1.65
1.87
2.03
2.08
1.97
1.75
1.52
1.38
1.41
1.63
1.95
2.26
2.44
2.43
2.29
2.08
1.88
1.69
1.46
1.16
0.80
0.44
0.23
0.26
0.55
1.05
1.59
1.99
2.14
2.01
1.67
1.23
0.81
0.47
0.16
-0.23
-0.89
-1.98
-3.64
-5.95
-8.85
-12.10
-15.23
-17.57
-18.41
-17.33
-14.32
-9.92
-5.02
-0.57
2.76
4.74
5.53
5.52
5.09
4.52
3.94
3.42
2.99
2.70
2.61
2.71
2.95
3.18
3.30
3.21
2.90
2.48
2.12
1.99
2.19
2.69
3.34
3.97
4.41
4.59
4.53
4.30
3.97
3.58
3.19
2.85
2.63
2.54
2.52
2.46
2.22
1.75
1.13
0.52
0.14
0.11
0.44
0.98
1.54
1.93
2.07
1.96
1.66
1.23
0.66
-0.06
-1.01
-2.23
-3.82
-5.83
-8.36
-11.39
-14.74
-17.96
-20.32
-21.03
-19.56
-15.88
-10.59
-4.76
0.48
4.31
6.46
7.17
6.96
6.33
5.60
4.90
4.27
3.74
3.41
3.34
3.54
3.88
4.18
4.29
4.15
3.82
3.49
3.33
3.48
3.93
4.58
5.26
5.81
6.18
6.41
6.53
6.53
6.31
5.75
4.80
3.58
2.34
1.41
0.97
1.02
1.38
1.76
1.95
1.90
1.75
1.70
1.91
2.39
2.99
3.46
3.53
3.02
1.92
0.37
-1.38
-3.07
-4.54
-5.82
-7.14
-8.84
-11.24
-14.51
-18.53
-22.90
-26.89
-29.57
-30.02
-27.60
-22.32
-14.92
-6.71
0.80
6.42
9.66
10.76
10.44
9.47
8.39
7.38
6.46
5.62
4.94
4.58
4.59
4.91
5.31
5.55
5.48
5.10
4.55
4.04
3.76
3.75
3.96
4.24
4.38
4.25
3.82
3.26
2.80
2.68
3.01
3.70
4.47
4.98
4.95
4.34
3.29
2.10
1.08
0.39
0.04
-0.11
-0.27
-0.56
-1.00
-1.48
-1.84
-1.91
-1.64
-1.11
-0.49
0.01
0.28
0.34
0.33
0.41
0.66
1.00
1.23
1.13
0.55
-0.59
-2.28
-4.51
-7.19
-10.07
-12.66
-14.30
-14.35
-12.55
-9.17
-4.98
-0.95
2.13
3.93
4.60
4.56
4.25
3.93
3.63
3.26
2.79
2.29
1.93
1.84
2.04
2.41
2.75
2.89
2.76
2.42
2.05
1.85
1.95
2.34
2.87
3.36
3.62
3.56
3.25
2.84
2.54
2.46
2.63
2.93
3.18
3.24
3.07
2.75
2.42
2.19
2.11
2.13
2.14
2.05
1.83
1.55
1.34
1.28
1.40
1.60
1.73
1.66
1.37
0.91
0.42
0.02
-0.26
-0.53
-1.00
-1.96
-3.65
-6.21
-9.64
-13.72
-17.98
-21.70
-24.02
-24.14
-21.67
-16.88
-10.65
-4.27
1.05
4.61
6.39
6.87
6.70
6.35
5.96
5.47
4.83
4.13
3.59
3.43
3.69
4.21
4.74
5.06
5.08
4.87
4.55
4.26
4.09
4.06
4.14
4.23
4.26
4.20
4.07
3.98
4.00
4.16
4.40
4.62
4.75
4.77
4.71
4.63
4.52
4.34
4.04
3.58
2.96
2.24
1.54
1.01
0.78
0.87
1.22
1.60
1.76
1.51
0.80
-0.23
-1.40
-2.52
-3.59
-4.73
-6.13
-7.99
-10.41
-13.38
-16.79
-20.36
-23.58
-25.72
-25.96
-23.76
-19.13
-12.78
-5.93
0.10
4.42
6.80
7.67
7.74
7.58
7.41
7.17
6.68
5.93
5.11
4.51
4.30
4.43
4.67
4.74
4.47
3.91
3.26
2.79
2.66
2.86
3.25
3.59
3.73
3.63
3.35
3.05
2.86
2.83
2.97
3.21
3.46
3.63
3.64
3.45
3.13
2.76
2.46
2.30
2.25
2.20
2.04
1.76
1.42
1.15
1.03
1.02
0.99
0.79
0.34
-0.30
-0.98
-1.52
-1.80
-1.80
-1.62
-1.42
-1.43
-1.83
-2.78
-4.32
-6.39
-8.81
-11.24
-13.21
-14.17
-13.68
-11.57
-8.10
-3.91
0.13
3.28
5.14
5.78
5.61
5.13
4.69
4.42
4.26
4.11
3.93
3.82
3.88
4.16
4.58
4.98
5.17
5.05
4.72
4.36
4.23
4.47
5.07
5.86
6.63
7.18
7.46
7.51
7.43
7.33
7.33
7.45
7.67
7.82
7.63
6.81
5.17
2.79
0.03
-2.58
-4.50
-5.41
-5.30
-4.50
-3.50
-2.76
-2.60
-3.03
-3.84
-4.72
-5.34
-5.57
-5.49
-5.47
-6.10
-8.01
-11.66
-17.10
-23.83
-30.80
-36.63
-39.91
-39.56
-35.25
-27.49
-17.56
-7.15
2.09
9.04
13.28
15.07
15.09
14.12
12.78
11.44
10.29
9.42
8.90
8.71
8.73
8.73
8.55
8.08
7.42
6.72
6.19
5.93
5.95
6.17
6.48
6.76
6.93
6.98
6.92
6.79
6.68
6.66
6.77
6.96
7.17
7.33
7.42
7.44
7.43
7.35
7.10
6.49
5.36
3.63
1.40
-1.04
-3.28
-4.91
-5.67
-5.53
-4.76
-3.75
-2.90
-2.44
-2.38
-2.56
-2.72
-2.71
-2.53
-2.40
-2.72
-4.00
-6.65
-10.86
-16.36
-22.43
-27.90
-31.45
-31.97
-29.00
-22.91
-14.88
-6.47
0.84
6.12
9.18
10.38
10.39
9.79
8.91
7.89
6.81
5.81
5.13
4.94
5.24
5.81
6.29
6.37
5.93
5.10
4.16
3.46
3.23
3.51
4.11
4.74
5.07
4.95
4.43
3.77
3.26
3.12
3.36
3.83
4.27
4.52
4.49
4.25
3.91
3.57
3.24
2.88
2.43
1.85
1.14
0.39
-0.24
-0.59
-0.55
-0.12
0.53
1.13
1.44
1.33
0.89
0.33
-0.08
-0.18
0.01
0.31
0.41
-0.02
-1.27
-3.54
-6.84
-10.94
-15.26
-18.94
-20.99
-20.64
-17.69
-12.66
-6.69
-1.11
3.04
5.33
6.00
5.66
4.98
4.35
3.88
3.48
3.08
2.71
2.50
2.58
2.89
3.26
3.46
3.35
2.94
2.44
2.09
2.08
2.43
2.96
3.41
3.59
3.41
3.01
2.62
2.43
2.52
2.84
3.22
3.49
3.54
3.35
3.02
2.67
2.40
2.24
2.15
2.03
1.82
1.51
1.17
0.92
0.87
1.02
1.31
1.57
1.65
1.47
1.07
0.60
0.24
0.09
0.19
0.39
0.48
0.14
-0.96
-3.04
-6.18
-10.17
-14.52
-18.45
-21.08
-21.69
-19.94
-16.07
-10.82
-5.23
-0.29
3.34
5.47
6.32
6.32
5.90
5.34
4.78
4.27
3.86
3.67
3.75
4.12
4.63
5.09
5.30
5.18
4.78
4.28
3.90
3.80
4.02
4.47
4.97
5.32
5.39
5.17
4.79
4.50
4.51
4.92
5.62
6.36
6.83
6.83
6.34
5.50
4.48
3.40
2.26
0.97
-0.54
-2.28
-4.11
-5.76
-6.99
-7.57
-7.42
-6.61
-5.31
-3.83
-2.46
-1.44
-0.87
-0.69
-0.75
-0.89
-1.06
-1.30
-1.78
-2.73
-4.39
-6.95
-10.49
-14.92
-19.79
-24.29
-27.33
-27.85
-25.20
-19.53
-11.85
-3.72
3.25
8.03
10.39
10.84
10.23
9.32
8.52
7.86
7.23
6.58
5.98
5.59
5.50
5.64
5.80
5.79
5.48
4.93
4.34
3.93
3.86
4.15
4.68
5.21
5.51
5.45
5.07
4.58
4.22
4.20
4.51
4.99
5.37
5.42
5.11
4.56
3.98
3.54
3.25
2.95
2.47
1.72
0.80
-0.03
-0.48
-0.36
0.27
1.17
1.94
2.29
2.07
1.38
0.49
-0.34
-0.94
-1.36
-1.76
-2.45
-3.72
-5.84
-8.98
-13.14
-18.05
-23.05
-27.14
-29.18
-28.25
-24.11
-17.40
-9.44
-1.85
4.06
7.67
9.16
9.20
8.55
7.73
6.94
6.17
5.45
4.87
4.61
4.71
5.04
5.33
5.29
4.80
3.96
3.08
2.45
2.28
2.53
2.99
3.43
3.65
3.61
3.42
3.22
3.17
3.29
3.53
3.77
3.91
3.89
3.73
3.48
3.19
2.87
2.53
2.12
1.62
1.06
0.54
0.18
0.10
0.34
0.87
1.54
2.16
2.53
2.58
2.32
1.86
1.33
0.83
0.34
-0.23
-1.06
-2.37
-4.35
-7.09
-10.47
-14.14
-17.45
-19.63
-19.99
-18.19
-14.43
-9.42
-4.16
0.40
3.68
5.60
6.41
6.53
6.29
5.82
5.15
4.33
3.47
2.79
2.46
2.53
2.87
3.26
3.49
3.46
3.21
2.89
2.64
2.55
2.60
2.70
2.77
2.75
2.68
2.66
2.80
3.13
3.58
3.98
4.16
4.04
3.70
3.30
3.04
2.97
3.04
3.07
2.92
2.52
1.92
1.30
0.83
0.65
0.77
1.12
1.56
1.93
2.12
2.06
1.76
1.25
0.61
-0.14
-1.01
-2.10
-3.54
-5.51
-8.13
-11.43
-15.22
-19.00
-22.04
-23.50
-22.72
-19.51
-14.35
-8.21
-2.31
2.36
5.32
6.69
6.93
6.60
6.08
5.48
4.79
4.00
3.22
2.67
2.51
2.72
3.14
3.54
3.72
3.62
3.35
3.04
2.83
2.80
2.92
3.17
3.48
3.78
4.00
4.10
4.06
3.92
3.78
3.70
3.70
3.74
3.74
3.65
3.48
3.30
3.20
3.20
3.26
3.29
3.18
2.90
2.51
2.13
1.92
1.94
2.17
2.46
2.61
2.47
1.97
1.14
0.15
-0.87
-1.86
-2.90
-4.18
-5.97
-8.44
-11.58
-15.12
-18.57
-21.29
-22.67
-22.22
-19.79
-15.60
-10.25
-4.58
0.55
4.48
6.92
7.93
7.87
7.19
6.27
5.37
4.62
4.07
3.74
3.63
3.72
3.90
4.05
4.01
3.70
3.12
2.43
1.85
1.59
1.72
2.13
2.61
2.91
2.91
2.63
2.26
2.03
2.09
2.46
3.03
3.62
4.08
4.35
4.43
4.36
4.22
4.02
3.75
3.40
2.96
2.46
1.97
1.59
1.43
1.54
1.89
2.32
2.66
2.75
2.50
1.99
1.39
0.84
0.41
-0.01
-0.67
-1.86
-3.80
-6.55
-9.97
-13.73
-17.41
-20.48
-22.43
-22.76
-21.20
-17.77
-12.90
-7.37
-2.08
2.18
5.01
6.46
6.90
6.81
6.56
6.30
5.97
5.50
4.87
4.22
3.77
3.66
3.90
4.34
4.74
4.89
4.74
4.41
4.15
4.18
4.57
5.20
5.81
6.16
6.16
5.87
5.52
5.35
5.51
6.01
6.72
7.42
7.93
8.11
7.93
7.46
6.74
5.82
4.66
3.24
1.57
-0.24
-2.00
-3.49
-4.54
-5.12
-5.24
-5.00
-4.53
-3.94
-3.38
-3.01
-2.95
-3.27
-3.93
-4.80
-5.77
-6.75
-7.78
-8.95
-10.42
-12.35
-14.87
-17.99
-21.50
-24.86
-27.22
-27.61
-25.31
-20.21
-13.00
-5.02
2.23
7.62
10.73
11.86
11.73
11.06
10.25
9.43
8.55
7.66
6.94
6.61
6.79
7.33
7.91
8.15
7.83
7.01
5.95
5.02
4.50
4.44
4.73
5.11
5.42
5.59
5.70
5.91
6.28
6.79
7.31
7.72
7.92
7.93
7.79
7.56
7.25
6.87
6.40
5.88
5.40
5.02
4.79
4.72
4.79
4.94
5.15
5.38
5.59
5.77
5.91
6.09
6.38
6.84
7.34
7.50
6.77
4.59
0.63
-5.03
-11.84
-18.96
-25.57
-31.06
-35.22
-38.07
-39.74
-40.24
-39.47
-37.38
-34.09
-29.90
-25.20
-20.27
-15.17
-9.83
-4.26
1.30
6.37
10.40
13.01
14.20
14.33
13.85
13.17
12.50
11.88
11.31
10.78
10.38
10.14
10.05
10.03
10.00
9.87
9.60
9.22
8.77
8.32
7.91
7.59
7.34
7.11
6.88
6.61
6.36
6.19
6.18
6.35
6.60
6.80
6.79
6.42
5.63
4.45
2.92
1.18
-0.66
-2.46
-4.11
-5.59
-6.87
-7.96
-8.84
-9.49
-9.87
-10.01
-10.00
-9.90
-9.73
-9.41
-8.80
-7.77
-6.32
-4.54
-2.61
-0.72
0.95
2.33
3.35
4.02
4.36
4.46
4.39
4.25
4.08
3.91
3.73
3.56
3.41
3.31
3.26
3.25
3.25
3.21
3.13
2.96
2.67
2.24
1.67
1.01
0.27
-0.61
-1.81
-3.49
-5.74
-8.41
-11.13
-13.40
-14.76
-14.92
-13.83
-11.65
-8.72
-5.43
-2.18
0.64
2.76
4.10
4.75
4.95
4.96
4.96
4.97
4.92
4.75
4.48
4.19
4.00
3.95
3.97
3.95
3.78
3.49
3.18
2.99
2.98
3.08
3.19
3.20
3.08
2.92
2.82
2.86
3.02
3.20
3.32
3.35
3.36
3.43
3.59
3.79
3.88
3.71
3.23
2.49
1.65
0.85
0.18
-0.35
-0.78
-1.15
-1.47
-1.71
-1.88
-1.98
-2.03
-2.03
-1.93
-1.70
-1.34
-0.94
-0.66
-0.61
-0.84
-1.21
-1.53
-1.61
-1.37
-0.91
-0.48
-0.42
-1.05
-2.61
-5.14
-8.43
-12.01
-15.22
-17.34
-17.81
-16.40
-13.31
-9.11
-4.57
-0.44
2.79
4.90
5.97
6.24
5.98
5.43
4.77
4.11
3.53
3.12
2.95
3.06
3.39
3.81
4.12
4.15
3.86
3.32
2.71
2.25
2.04
2.08
2.24
2.37
2.37
2.26
2.14
2.13
2.29
2.58
2.94
3.25
3.47
3.58
3.61
3.58
3.48
3.28
2.95
2.50
2.00
1.53
1.19
1.04
1.09
1.27
1.49
1.64
1.65
1.55
1.38
1.26
1.26
1.38
1.51
1.55
1.38
0.97
0.40
-0.29
-1.05
-1.92
-2.98
-4.33
-6.02
-8.09
-10.53
-13.22
-15.94
-18.29
-19.74
-19.77
-18.04
-14.59
-9.93
-4.84
-0.18
3.42
5.70
6.79
7.03
6.80
6.33
5.77
5.16
4.54
4.03
3.76
3.79
4.07
4.47
4.78
4.84
4.61
4.16
3.65
3.24
3.03
3.02
3.12
3.21
3.19
3.04
2.83
2.64
2.56
2.63
2.84
3.14
3.44
3.66
3.75
3.72
3.66
3.67
3.86
4.22
4.65
4.97
5.00
4.70
4.21
3.79
3.73
4.15
4.90
5.65
5.95
5.51
4.24
2.37
0.27
-1.65
-3.14
-4.22
-5.19
-6.55
-8.84
-12.42
-17.31
-23.10
-28.98
-33.80
-36.40
-35.86
-31.83
-24.78
-15.88
-6.72
1.19
6.88
10.14
11.37
11.28
10.52
9.52
8.45
7.42
6.55
6.01
5.86
6.00
6.20
6.23
5.98
5.49
4.89
4.34
3.93
3.68
3.61
3.71
3.95
4.22
4.39
4.33
4.08
3.78
3.67
3.90
4.42
5.01
5.38
5.32
4.84
4.15
3.53
3.20
3.22
3.46
3.70
3.74
3.49
3.01
2.48
2.15
2.20
2.72
3.58
4.52
5.25
5.52
5.23
4.45
3.32
1.95
0.39
-1.43
-3.57
-6.13
-9.13
-12.55
-16.30
-20.21
-23.96
-26.99
-28.59
-28.06
-25.01
-19.62
-12.71
-5.52
0.70
5.08
7.39
7.99
7.58
6.81
6.12
5.63
5.28
5.02
4.81
4.73
4.81
5.02
5.25
5.38
5.30
4.99
4.52
4.04
3.68
3.51
3.50
3.52
3.45
3.24
2.95
2.72
2.68
2.88
3.25
3.64
3.94
4.07
4.08
4.07
4.13
4.29
4.51
4.72
4.83
4.80
4.57
4.14
3.55
2.89
2.33
2.00
1.97
2.22
2.59
2.86
2.81
2.33
1.45
0.32
-0.85
-1.93
-2.89
-3.85
-5.02
-6.64
-8.86
-11.70
-15.01
-18.49
-21.68
-24.02
-24.92
-23.91
-20.82
-15.94
-10.00
-3.99
1.15
4.83
6.91
7.69
7.65
7.20
6.61
5.97
5.32
4.75
4.37
4.26
4.37
4.54
4.57
4.33
3.85
3.31
2.91
2.80
2.97
3.29
3.58
3.66
3.50
3.17
2.79
2.52
2.45
2.58
2.86
3.20
3.48
3.63
3.62
3.48
3.30
3.15
3.09
3.09
3.06
2.88
2.50
1.94
1.36
0.93
0.80
1.00
1.44
1.92
2.24
2.26
1.94
1.37
0.74
0.24
-0.04
-0.14
-0.30
-0.87
-2.22
-4.52
-7.69
-11.32
-14.79
-17.43
-18.64
-18.08
-15.74
-11.98
-7.45
-2.94
0.84
3.43
4.76
5.03
4.65
4.00
3.34
2.82
2.48
2.36
2.45
2.71
3.04
3.32
3.42
3.29
2.96
2.54
2.17
1.95
1.92
2.02
2.17
2.26
2.24
2.13
2.03
2.04
2.24
2.63
3.14
3.68
4.15
4.47
4.58
4.48
4.24
3.96
3.75
3.66
3.69
3.74
3.68
3.43
2.97
2.39
1.81
1.38
1.15
1.15
1.27
1.38
1.31
0.96
0.30
-0.66
-1.83
-3.09
-4.37
-5.61
-6.84
-8.15
-9.70
-11.67
-14.14
-16.97
-19.70
-21.58
-21.82
-19.88
-15.78
-10.21
-4.24
0.98
4.69
6.69
7.33
7.18
6.72
6.23
5.71
5.13
4.50
3.97
3.71
3.80
4.12
4.45
4.55
4.31
3.80
3.25
2.89
2.87
3.16
3.56
3.82
3.71
3.21
2.45
1.71
1.26
1.25
1.65
2.25
2.77
2.99
2.83
2.41
1.92
1.56
1.46
1.60
1.88
2.14
2.25
2.12
1.79
1.34
0.92
0.63
0.55
0.67
0.90
1.16
1.32
1.31
1.14
0.85
0.54
0.25
-0.02
-0.34
-0.87
-1.78
-3.22
-5.26
-7.86
-10.78
-13.57
-15.59
-16.20
-15.00
-12.05
-7.89
-3.43
0.43
3.04
4.27
4.36
3.80
3.06
2.42
2.00
1.83
1.90
2.17
2.62
3.10
3.46
3.54
3.28
2.72
2.04
1.45
1.15
1.22
1.58
2.07
2.46
2.57
2.36
1.94
1.50
1.24
1.24
1.43
1.66
1.79
1.74
1.58
1.42
1.39
1.51
1.71
1.89
1.95
1.86
1.68
1.51
1.40
1.39
1.46
1.53
1.54
1.45
1.26
1.04
0.90
0.88
0.99
1.12
1.10
0.70
-0.25
-1.89
-4.19
-6.96
-9.80
-12.18
-13.52
-13.41
-11.77
-8.91
-5.44
-2.08
0.61
2.37
3.29
3.63
3.64
3.46
3.09
2.55
1.90
1.35
1.09
1.26
1.79
2.48
3.04
3.26
3.06
2.56
1.97
1.53
1.41
1.62
2.05
2.52
2.90
3.13
3.24
3.34
3.51
3.76
4.00
4.13
4.10
3.91
3.67
3.51
3.55
3.79
4.10
4.32
4.25
3.82
3.10
2.28
1.59
1.18
1.03
1.01
0.90
0.55
-0.12
-1.04
-2.09
-3.15
-4.16
-5.13
-6.19
-7.51
-9.26
-11.59
-14.50
-17.79
-21.00
-23.43
-24.29
-22.97
-19.34
-13.84
-7.42
-1.26
3.68
6.88
8.38
8.61
8.10
7.28
6.42
5.64
5.02
4.60
4.43
4.50
4.74
5.03
5.23
5.25
5.05
4.70
4.33
4.10
4.08
4.26
4.51
4.66
4.63
4.41
4.11
3.89
3.81
3.92
4.14
4.40
4.61
4.71
4.67
4.49
4.25
4.04
3.99
4.13
4.40
4.66
4.72
4.51
4.09
3.65
3.40
3.47
3.81
4.21
4.45
4.40
4.10
3.70
3.28
2.69
1.54
-0.70
-4.38
-9.56
-15.87
-22.64
-29.09
-34.46
-38.05
-39.25
-37.59
-32.88
-25.49
-16.40
-7.06
1.00
6.72
9.80
10.70
10.31
9.49
8.74
8.16
7.65
7.09
6.55
6.19
6.15
6.41
6.74
6.90
6.72
6.25
5.65
5.15
4.90
4.88
4.97
5.00
4.85
4.52
4.08
3.69
3.48
3.53
3.82
4.23
4.58
4.73
4.61
4.31
4.00
3.86
3.98
4.31
4.68
4.89
4.83
4.52
4.10
3.73
3.55
3.59
3.80
4.07
4.21
4.10
3.64
2.82
1.73
0.52
-0.66
-1.75
-2.81
-4.07
-5.86
-8.52
-12.22
-16.88
-22.10
-27.13
-30.96
-32.52
-31.07
-26.47
-19.35
-11.03
-3.04
3.31
7.38
9.27
9.59
9.08
8.29
7.48
6.66
5.86
5.16
4.69
4.57
4.76
5.09
5.32
5.27
4.93
4.42
3.98
3.82
4.04
4.52
5.02
5.26
5.04
4.41
3.58
2.91
2.64
2.86
3.44
4.12
4.64
4.83
4.73
4.46
4.20
4.07
4.07
4.09
3.97
3.65
3.13
2.55
2.11
1.92
1.98
2.15
2.25
2.14
1.82
1.37
0.93
0.58
0.31
-0.05
-0.72
-1.91
-3.75
-6.30
-9.51
-13.24
-17.22
-21.06
-24.13
-25.72
-25.19
-22.21
-17.07
-10.60
-3.98
1.64
5.57
7.69
8.41
8.32
7.95
7.51
7.04
6.51
5.96
5.55
5.43
5.64
6.03
6.33
6.34
6.03
5.56
5.20
5.17
5.50
6.08
6.70
7.21
7.57
7.86
8.17
8.55
8.95
9.28
9.50
9.62
9.77
10.07
10.59
11.32
12.17
13.03
13.75
14.15
14.01
13.04
11.07
8.05
4.21
-0.01
-4.11
-7.71
-10.74
-13.46
-16.22
-19.27
-22.54
-25.70
-28.27
-29.96
-30.76
-30.95
-30.88
-30.73
-30.45
-29.82
-28.67
-27.01
-24.97
-22.60
-19.67
-15.78
-10.61
-4.27
2.57
8.83
13.53
16.12
16.75
16.07
14.83
13.57
12.51
11.60
10.75
9.96
9.33
8.94
8.78
8.71
8.54
8.14
7.48
6.68
5.94
5.44
5.32
5.57
6.05
6.55
6.88
6.91
6.65
6.19
5.71
5.32
5.07
4.94
4.85
4.76
4.70
4.78
5.08
5.62
6.25
6.71
6.76
6.32
5.53
4.70
4.18
4.16
4.63
5.29
5.78
5.75
5.03
3.64
1.77
-0.32
-2.39
-4.33
-6.17
-8.14
-10.53
-13.70
-17.79
-22.68
-27.86
-32.44
-35.35
-35.62
-32.71
-26.76
-18.63
-9.71
-1.49
4.88
8.93
10.84
11.22
10.77
9.94
8.94
7.83
6.67
5.68
5.12
5.13
5.63
6.30
6.76
6.76
6.25
5.45
4.66
4.13
3.92
3.94
4.01
3.97
3.73
3.33
2.90
2.57
2.44
2.51
2.74
3.01
3.21
3.28
3.22
3.10
3.01
2.99
3.05
3.08
2.98
2.66
2.14
1.54
1.04
0.77
0.76
0.94
1.17
1.35
1.43
1.44
1.45
1.49
1.51
1.44
1.16
0.62
-0.24
-1.47
-3.14
-5.34
-8.07
-11.23
-14.47
-17.23
-18.88
-18.84
-16.89
-13.25
-8.58
-3.80
0.23
3.01
4.48
4.96
4.92
4.70
4.45
4.15
3.75
3.30
2.96
2.92
3.20
3.67
4.07
4.14
3.78
3.07
2.27
1.66
1.42
1.58
2.03
2.54
2.90
3.02
2.88
2.60
2.34
2.22
2.24
2.31
2.27
2.04
1.65
1.28
1.13
1.37
1.94
2.65
3.19
3.36
3.13
2.63
2.11
1.75
1.60
1.60
1.63
1.65
1.66
1.72
1.85
2.04
2.22
2.30
2.17
1.74
0.86
-0.62
-2.86
-5.93
-9.71
-13.81
-17.60
-20.29
-21.19
-19.91
-16.55
-11.76
-6.49
-1.70
1.95
4.23
5.33
5.65
5.56
5.25
4.84
4.39
4.04
3.93
4.16
4.64
5.16
5.47
5.43
5.04
4.48
3.96
3.65
3.62
3.83
4.17
4.52
4.80
4.97
5.05
5.11
5.23
5.46
5.79
6.15
6.45
6.67
6.89
7.24
7.85
8.67
9.44
9.70
8.96
6.99
3.94
0.36
-3.00
-5.50
-6.87
-7.28
-7.19
-7.07
-7.21
-7.61
-8.05
-8.33
-8.37
-8.26
-8.18
-8.38
-9.10
-10.58
-13.09
-16.77
-21.47
-26.55
-30.87
-32.99
-31.75
-26.76
-18.68
-9.11
0.00
7.07
11.39
13.17
13.26
12.58
11.72
10.85
9.91
8.83
7.76
6.96
6.67
6.88
7.35
7.71
7.65
7.09
6.23
5.40
4.86
4.72
4.87
5.09
5.14
4.96
4.61
4.25
4.08
4.20
4.60
5.15
5.64
5.90
5.87
5.65
5.43
5.41
5.67
6.10
6.45
6.45
5.97
5.04
3.89
2.81
2.04
1.68
1.69
1.94
2.19
2.24
1.90
1.11
-0.07
-1.46
-2.88
-4.22
-5.58
-7.29
-9.79
-13.39
-18.09
-23.47
-28.72
-32.77
-34.61
-33.47
-29.19
-22.28
-13.89
-5.43
1.76
6.86
9.70
10.66
10.40
9.58
8.60
7.69
6.95
6.44
6.24
6.36
6.67
6.98
7.08
6.87
6.41
5.83
5.32
5.01
4.95
5.06
5.23
5.30
5.18
4.84
4.34
3.83
3.46
3.36
3.57
4.02
4.54
4.95
5.09
4.95
4.63
4.32
4.13
4.06
4.00
3.74
3.19
2.36
1.45
0.72
0.41
0.58
1.14
1.82
2.30
2.34
1.84
0.91
-0.25
-1.45
-2.63
-3.87
-5.36
-7.32
-9.87
-13.01
-16.59
-20.25
-23.47
-25.54
-25.73
-23.56
-19.08
-12.93
-6.23
-0.19
4.32
7.01
8.14
8.24
7.82
7.21
6.52
5.83
5.20
4.77
4.62
4.74
4.99
5.17
5.14
4.85
4.37
3.81
3.32
3.05
3.04
3.28
3.61
3.87
3.89
3.66
3.28
2.93
2.77
2.86
3.10
3.32
3.39
3.25
2.98
2.69
2.52
2.53
2.72
2.99
3.19
3.17
2.82
2.16
1.34
0.65
0.36
0.61
1.29
2.08
2.62
2.65
2.15
1.35
0.57
0.04
-0.27
-0.61
-1.39
-2.97
-5.56
-9.09
-13.25
-17.46
-20.96
-22.88
-22.58
-19.81
-14.93
-8.90
-2.94
1.89
5.00
6.42
6.63
6.20
5.58
4.93
4.30
3.67
3.15
2.84
2.79
2.96
3.17
3.26
3.20
3.04
2.93
2.98
3.23
3.58
3.91
4.06
3.96
3.60
3.08
2.53
2.13
2.03
2.25
2.72
3.24
3.63
3.77
3.72
3.60
3.54
3.56
3.54
3.33
2.87
2.27
1.74
1.52
1.71
2.22
2.84
3.32
3.51
3.37
2.99
2.47
1.87
1.15
0.21
-1.13
-3.01
-5.56
-8.79
-12.55
-16.54
-20.27
-23.12
-24.42
-23.68
-20.73
-15.95
-10.11
-4.26
0.71
4.24
6.28
7.11
7.17
6.82
6.29
5.69
5.11
4.68
4.52
4.69
5.12
5.64
6.01
6.08
5.84
5.40
4.99
4.76
4.77
4.97
5.22
5.44
5.60
5.76
6.03
6.45
6.97
7.49
7.84
7.92
7.68
7.20
6.58
5.96
5.43
4.97
4.48
3.81
2.89
1.73
0.51
-0.55
-1.27
-1.59
-1.59
-1.48
-1.47
-1.74
-2.40
-3.42
-4.68
-6.00
-7.17
-8.10
-8.88
-9.79
-11.28
-13.79
-17.53
-22.33
-27.50
-31.96
-34.42
-33.81
-29.71
-22.54
-13.53
-4.36
3.41
8.81
11.70
12.58
12.26
11.41
10.41
9.34
8.22
7.15
6.36
6.10
6.39
7.03
7.60
7.72
7.20
6.17
4.99
4.09
3.74
3.95
4.45
4.88
4.94
4.56
3.93
3.33
3.00
3.03
3.36
3.81
4.18
4.37
4.37
4.22
4.04
3.92
3.92
4.04
4.21
4.30
4.19
3.83
3.31
2.84
2.65
2.85
3.38
4.00
4.41
4.41
3.97
3.19
2.25
1.18
-0.09
-1.72
-3.80
-6.30
-9.09
-12.01
-14.94
-17.84
-20.57
-22.83
-24.11
-23.81
-21.53
-17.30
-11.70
-5.68
-0.24
3.86
6.37
7.50
7.71
7.45
7.03
6.54
5.98
5.37
4.81
4.46
4.42
4.67
5.07
5.41
5.55
5.42
5.11
4.74
4.45
4.33
4.34
4.43
4.50
4.52
4.49
4.49
4.58
4.82
5.18
5.60
6.01
6.34
6.58
6.76
6.94
7.16
7.39
7.55
7.48
7.02
6.01
4.44
2.42
0.22
-1.81
-3.34
-4.18
-4.33
-4.00
-3.54
-3.32
-3.59
-4.41
-5.62
-6.96
-8.15
-9.04
-9.64
-10.10
-10.70
-11.73
-13.43
-15.87
-18.90
-22.09
-24.76
-26.12
-25.47
-22.47
-17.31
-10.73
-3.83
2.29
6.82
9.48
10.50
10.39
9.75
9.00
8.31
7.73
7.21
6.78
6.50
6.45
6.58
6.76
6.78
6.51
5.94
5.23
4.62
4.30
4.33
4.53
4.67
4.54
4.10
3.53
3.06
2.89
3.06
3.44
3.86
4.15
4.26
4.24
4.16
4.09
4.04
4.01
3.96
3.90
3.83
3.76
3.70
3.63
3.49
3.24
2.80
2.15
1.32
0.44
-0.31
-0.75
-0.80
-0.53
-0.15
0.05
-0.16
-0.84
-1.85
-2.92
-3.74
-4.18
-4.28
-4.29
-4.58
-5.53
-7.42
-10.36
-14.20
-18.40
-22.10
-24.26
-23.98
-20.95
-15.56
-8.91
-2.37
2.91
6.36
8.06
8.54
8.40
8.05
7.58
6.98
6.22
5.44
4.84
4.60
4.71
4.98
5.17
5.06
4.61
3.93
3.25
2.82
2.77
3.12
3.71
4.32
4.74
4.84
4.62
4.23
3.83
3.58
3.51
3.60
3.73
3.82
3.87
3.95
4.21
4.74
5.55
6.46
7.19
7.41
6.88
5.50
3.40
0.87
-1.66
-3.79
-5.24
-5.89
-5.85
-5.37
-4.79
-4.38
-4.26
-4.39
-4.60
-4.74
-4.77
-4.84
-5.20
-6.11
-7.72
-10.00
-12.77
-15.71
-18.38
-20.24
-20.71
-19.33
-16.00
-11.07
-5.33
0.20
4.59
7.35
8.50
8.43
7.75
6.91
6.18
5.61
5.18
4.88
4.75
4.85
5.17
5.57
5.85
5.85
5.48
4.83
4.10
3.52
3.21
3.18
3.32
3.49
3.58
3.56
3.48
3.40
3.37
3.42
3.52
3.66
3.81
3.97
4.14
4.33
4.53
4.72
4.84
4.83
4.62
4.18
3.49
2.63
1.72
0.92
0.36
0.12
0.19
0.47
0.84
1.12
1.19
0.93
0.27
-0.78
-2.16
-3.72
-5.28
-6.73
-8.04
-9.37
-10.92
-12.87
-15.19
-17.62
-19.62
-20.60
-20.02
-17.69
-13.78
-8.88
-3.79
0.70
4.07
6.15
7.14
7.42
7.33
7.06
6.64
6.04
5.31
4.59
4.08
3.88
3.94
4.07
4.05
3.77
3.24
2.62
2.10
1.85
1.93
2.33
2.92
3.52
3.98
4.18
4.11
3.86
3.59
3.43
3.44
3.59
3.83
4.07
4.31
4.55
4.82
5.08
5.29
5.37
5.29
5.07
4.80
4.59
4.48
4.47
4.43
4.17
3.50
2.34
0.78
-0.89
-2.37
-3.41
-3.93
-4.10
-4.24
-4.65
-5.49
-6.67
-7.92
-8.89
-9.35
-9.25
-8.81
-8.39
-8.39
-9.08
-10.52
-12.58
-14.91
-17.05
-18.43
-18.48
-16.81
-13.38
-8.62
-3.32
1.53
5.20
7.39
8.25
8.26
7.88
7.41
6.94
6.48
6.03
5.65
5.39
5.28
5.24
5.19
5.03
4.75
4.36
3.94
3.54
3.21
2.99
2.87
2.80
2.72
2.56
2.32
2.08
1.92
1.89
1.96
2.05
2.06
1.95
1.73
1.48
1.28
1.16
1.11
1.05
0.92
0.69
0.40
0.10
-0.13
-0.25
-0.25
-0.18
-0.10
-0.13
-0.29
-0.59
-0.93
-1.20
-1.31
-1.24
-1.05
-0.87
-0.81
-0.97
-1.36
-1.92
-2.57
-3.18
-3.66
-3.92
-3.95
-3.73
-3.30
-2.72
-2.05
-1.35
-0.69
-0.12
0.33
0.67
0.96
1.26
1.60
1.95
2.23
2.36
2.30
2.07
1.76
1.42
1.11
0.85
0.66
0.59
0.66
0.88
1.17
1.44
1.56
1.49
1.28
1.04
0.91
0.94
1.10
1.29
1.39
1.31
1.02
0.56
0.03
-0.45
-0.76
-0.87
-0.76
-0.52
-0.26
-0.11
-0.16
-0.42
-0.82
-1.23
-1.57
-1.74
-1.73
-1.59
-1.37
-1.13
-0.91
-0.71
-0.50
-0.27
-0.02
0.20
0.32
0.32
0.23
0.13
0.06
0.05
0.05
0.01
-0.09
-0.23
-0.32
-0.32
-0.23
-0.12
-0.10
-0.21
-0.41
-0.60
-0.70
-0.65
-0.47
-0.22
0.05
0.33
0.58
0.81
1.02
1.21
1.39
1.55
1.69
1.78
1.81
1.78
1.74
1.74
1.84
2.07
2.37
2.66
2.85
2.86
2.70
2.41
2.09
1.85
1.74
1.80
2.04
2.42
2.85
3.23
3.42
3.33
2.94
2.37
1.82
1.50
1.49
1.75
2.15
2.49
2.60
2.36
1.66
0.46
-1.24
-3.30
-5.44
-7.33
-8.63
-9.17
-8.96
-8.14
-6.92
-5.45
-3.86
-2.22
-0.65
0.75
1.87
2.66
3.12
3.29
3.17
2.76
2.04
0.99
-0.31
-1.75
-3.22
-4.62
-5.92
-7.06
-7.99
-8.63
-8.87
-8.62
-7.89
-6.76
-5.40
-4.04
-2.83
-1.89
-1.17
-0.62
-0.12
0.37
0.86
1.32
1.70
1.97
2.12
2.13
2.03
1.84
1.64
1.51
1.49
1.58
1.68
1.70
1.59
1.42
1.27
1.23
1.30
1.40
1.43
1.34
1.19
1.09
1.15
1.41
1.81
2.22
2.55
2.74
2.78
2.65
2.35
1.89
1.31
0.74
0.30
0.10
0.15
0.39
0.69
0.93
1.05
1.02
0.88
0.63
0.31
-0.10
-0.54
-0.89
-0.99
-0.74
-0.12
0.75
1.62
2.27
2.55
2.47
2.20
1.97
1.98
2.30
2.86
3.48
3.93
4.05
3.86
3.49
3.17
3.11
3.33
3.72
3.98
3.78
2.84
0.91
-2.17
-6.35
-11.33
-16.40
-20.55
-22.70
-22.14
-18.83
-13.53
-7.50
-2.07
1.88
4.15
5.10
5.30
5.26
5.16
4.98
4.70
4.40
4.31
4.65
5.42
6.41
7.24
7.57
7.26
6.45
5.50
4.83
4.77
5.45
6.72
8.24
9.53
10.23
10.20
9.60
8.89
8.54
8.83
9.65
10.58
11.01
10.46
8.71
5.86
2.22
-1.78
-5.72
-9.20
-11.88
-13.49
-13.89
-13.13
-11.49
-9.42
-7.41
-5.86
-5.04
-5.00
-5.74
-7.34
-10.09
-14.35
-20.26
-27.36
-34.41
-39.53
-40.91
-37.53
-29.73
-19.17
-8.19
1.13
7.62
11.29
12.88
13.36
13.35
13.04
12.36
11.30
10.06
9.02
8.53
8.73
9.44
10.25
10.72
10.54
9.71
8.51
7.44
6.94
7.22
8.15
9.27
10.01
10.00
9.23
8.10
7.21
7.07
7.85
9.23
10.63
11.44
11.38
10.54
9.34
8.26
7.54
7.14
6.70
5.81
4.23
2.06
-0.30
-2.32
-3.58
-3.95
-3.65
-3.16
-3.10
-4.22
-7.32
-13.10
-21.75
-32.57
-43.76
-52.68
-56.59
-53.82
-44.48
-30.60
-15.35
-1.88
7.78
13.19
15.14
14.95
13.76
12.20
10.52
8.90
7.60
6.97
7.24
8.31
9.73
10.88
11.26
10.72
9.51
8.12
7.07
6.65
6.84
7.38
7.93
8.27
8.37
8.35
8.33
8.28
8.10
7.61
6.81
5.92
5.34
5.45
6.37
7.88
9.41
10.36
10.32
9.29
7.68
6.15
5.25
5.22
5.86
6.55
6.40
4.41
-0.37
-8.50
-19.72
-32.67
-44.83
-53.17
-55.17
-49.90
-38.57
-24.18
-10.35
0.12
6.15
8.40
8.53
8.05
7.72
7.47
6.92
5.98
5.03
4.70
5.42
7.07
8.96
10.25
10.37
9.34
7.73
6.32
5.71
6.04
6.96
7.96
8.58
8.68
8.43
8.16
8.10
8.27
8.48
8.43
7.96
7.14
6.27
5.74
5.81
6.42
7.21
7.64
7.34
6.31
5.00
4.10
4.18
5.39
7.22
8.70
8.63
5.85
-0.48
-10.66
-24.04
-38.81
-52.00
-60.22
-60.75
-52.86
-38.34
-21.05
-5.40
5.36
10.29
10.71
9.09
7.64
7.35
7.99
8.73
9.02
8.92
8.97
9.71
11.19
12.92
14.14
14.27
13.24
11.57
10.04
9.38
9.89
11.35
13.18
14.73
15.55
15.54
14.87
13.91
13.01
12.45
12.36
12.67
13.05
12.92
11.69
8.98
5.01
0.62
-3.03
-4.98
-5.12
-4.32
-4.03
-5.64
-9.88
-16.71
-25.65
-36.10
-47.36
-58.26
-66.78
-70.34
-66.71
-55.33
-37.99
-18.49
-1.15
10.92
16.92
18.24
17.25
15.92
15.07
14.49
13.62
12.29
10.91
10.18
10.52
11.81
13.37
14.41
14.36
13.16
11.27
9.44
8.37
8.45
9.62
11.37
13.00
13.82
13.47
12.02
9.97
8.07
6.99
7.12
8.37
10.20
11.85
12.63
12.17
10.62
8.62
7.05
6.70
7.83
10.05
12.37
13.47
12.09
7.21
-1.73
-14.68
-30.62
-47.28
-61.27
-68.95
-67.77
-57.52
-40.79
-22.01
-5.73
5.22
10.56
12.00
11.90
11.82
12.04
11.91
10.88
9.14
7.62
7.35
8.79
11.42
14.03
15.39
14.82
12.59
9.78
7.76
7.51
9.26
12.29
15.29
16.97
16.63
14.48
11.55
9.25
8.71
10.27
13.29
16.46
18.37
18.13
15.78
12.19
8.66
6.22
5.12
4.77
4.04
1.77
-2.94
-10.69
-21.88
-36.44
-53.34
-69.99
-82.47
-86.63
-79.98
-63.17
-40.16
-16.75
1.77
12.79
16.92
16.94
15.87
15.36
15.41
15.08
13.74
11.74
10.18
10.15
11.92
14.77
17.34
18.44
17.56
15.17
12.37
10.39
10.02
11.30
13.57
15.82
17.15
17.11
15.83
13.95
12.34
11.71
12.42
14.27
16.55
18.24
18.34
16.26
12.11
6.82
1.85
-1.29
-1.63
0.76
4.64
8.06
8.95
5.72
-2.48
-15.68
-33.08
-52.88
-72.11
-86.86
-93.20
-88.58
-73.13
-50.06
-24.65
-2.31
13.31
21.40
23.57
22.48
20.43
18.53
16.84
15.12
13.38
12.03
11.56
12.16
13.53
14.97
15.77
15.58
14.49
12.96
11.60
10.82
10.78
11.33
12.20
13.15
13.97
14.52
14.63
14.14
13.01
11.48
10.11
9.67
10.71
13.27
16.59
19.35
20.26
18.72
15.31
11.60
9.53
10.41
14.23
19.55
23.99
24.90
19.93
7.34
-13.58
-41.77
-73.63
-102.97
-122.35
-125.71
-111.15
-82.26
-46.99
-14.47
8.71
20.63
23.79
22.64
20.85
19.78
18.81
16.87
13.87
10.96
9.78
11.24
14.85
18.94
21.57
21.57
19.02
15.20
11.87
10.45
11.44
14.27
17.64
20.15
20.81
19.47
16.80
13.96
12.16
12.17
14.03
17.01
19.92
21.53
21.13
18.84
15.62
12.92
11.98
13.16
15.57
17.24
15.89
9.83
-1.55
-17.76
-37.59
-59.34
-80.72
-98.65
-109.37
-109.46
-97.29
-74.32
-45.18
-16.25
6.71
20.66
25.99
25.62
23.08
20.78
19.44
18.53
17.38
15.86
14.54
14.14
15.06
16.96
19.04
20.37
20.38
19.05
16.91
14.77
13.38
13.21
14.27
16.17
18.27
19.88
20.52
20.02
18.60
16.84
15.49
15.23
16.43
18.95
22.07
24.74
25.88
24.91
22.09
18.51
15.79
15.30
17.38
20.94
23.63
22.39
14.41
-2.14
-27.52
-59.95
-95.35
-127.55
-149.47
-155.09
-141.80
-111.92
-72.34
-32.22
0.37
21.17
30.57
32.22
30.51
28.41
26.74
24.97
22.60
20.06
18.49
18.94
21.52
25.17
28.22
29.29
28.00
25.01
21.75
19.64
19.51
21.33
24.37
27.55
29.87
30.75
30.16
28.48
26.40
24.72
24.14
25.14
27.73
31.37
35.07
37.59
38.01
36.24
33.14
30.19
28.68
28.88
29.58
28.39
22.56
9.74
-11.59
-41.83
-80.01
-123.17
-165.87
-200.39
-218.37
-213.61
-184.97
-137.60
-81.62
-28.63
12.40
37.79
49.18
51.27
48.95
45.28
41.26
36.89
32.47
29.04
27.91
29.69
33.68
37.99
40.53
40.11
37.02
32.82
29.53
28.60
30.23
33.37
36.40
37.96
37.61
35.92
34.09
33.22
33.79
35.45
37.40
38.80
39.21
38.53
36.86
34.09
29.84
23.76
15.99
7.50
-0.12
-5.30
-7.49
-7.66
-8.05
-11.12
-18.73
-31.77
-50.49
-74.88
-104.33
-136.63
-166.94
-188.03
-192.35
-175.33
-138.17
-88.24
-36.60
6.34
34.58
48.02
50.90
48.76
45.54
42.63
39.58
35.78
31.53
28.08
26.76
27.97
30.76
33.30
33.90
31.86
27.79
23.23
19.86
18.62
19.40
21.14
22.52
22.59
21.23
19.06
17.04
15.89
15.73
16.12
16.37
16.06
15.20
14.30
13.94
14.45
15.58
16.63
16.82
15.72
13.60
11.44
10.37
11.12
13.52
16.43
18.04
16.38
9.76
-2.86
-21.35
-44.02
-67.30
-86.16
-95.54
-92.21
-76.38
-51.97
-25.23
-2.25
13.30
21.13
23.49
23.36
22.74
22.07
20.83
18.63
15.95
14.04
14.12
16.58
20.61
24.60
26.92
26.68
24.15
20.65
17.89
17.31
19.39
23.50
28.22
31.89
33.33
32.26
29.27
25.48
21.91
18.90
15.81
11.24
3.56
-8.08
-23.09
-39.21
-52.92
-60.64
-60.05
-50.97
-35.46
-17.33
-1.22
8.34
7.66
-5.14
-29.27
-60.50
-91.47
-113.47
-119.47
-106.98
-79.29
-44.21
-10.80
14.21
28.57
34.16
34.81
33.73
32.26
30.14
26.82
22.67
19.09
17.66
19.08
22.58
26.29
28.28
27.52
24.29
20.00
16.39
14.70
15.26
17.46
20.14
22.14
22.75
21.88
20.00
17.84
16.12
15.30
15.53
16.62
18.18
19.71
20.75
20.93
20.18
18.77
17.33
16.56
16.83
17.71
17.89
15.66
9.50
-1.29
-16.44
-35.00
-55.68
-76.83
-96.12
-110.29
-115.58
-109.10
-90.45
-62.60
-31.35
-3.25
16.85
27.39
30.06
28.32
25.40
23.06
21.52
20.25
18.86
17.55
16.87
17.24
18.53
20.16
21.40
21.81
21.38
20.49
19.66
19.22
19.21
19.45
19.74
20.04
20.47
21.26
22.43
23.73
24.70
24.90
24.27
23.23
22.51
22.79
24.27
26.55
28.58
29.04
26.81
21.48
13.64
4.80
-3.07
-8.37
-10.64
-10.91
-11.72
-16.42
-28.19
-48.75
-77.34
-110.05
-140.24
-160.08
-163.15
-146.87
-113.90
-71.51
-28.99
5.69
28.45
39.64
42.62
41.32
38.41
34.79
30.37
25.35
20.79
18.21
18.67
21.90
26.24
29.46
29.83
27.02
22.12
17.19
14.09
13.76
15.78
18.78
21.09
21.56
20.02
17.24
14.56
13.17
13.59
15.50
17.84
19.44
19.51
18.09
15.99
14.31
13.84
14.57
15.63
15.74
13.95
10.18
5.37
1.01
-1.63
-2.16
-1.31
-0.44
-1.11
-4.49
-11.30
-21.89
-36.03
-52.64
-69.32
-82.43
-88.02
-83.36
-68.39
-46.14
-21.75
-0.48
14.25
21.79
23.80
22.83
20.93
18.99
16.98
14.75
12.57
11.12
11.07
12.53
14.80
16.72
17.24
16.02
13.55
10.96
9.43
9.60
11.27
13.52
15.19
15.46
14.25
12.25
10.58
10.15
11.28
13.49
15.74
16.95
16.46
14.38
11.45
8.73
7.05
6.70
7.28
7.95
7.91
6.85
5.11
3.50
2.82
3.36
4.72
5.90
5.65
2.62
-4.43
-16.44
-33.57
-54.45
-75.71
-92.37
-99.31
-93.41
-75.21
-49.07
-21.57
1.17
15.77
22.36
23.56
22.56
21.38
20.36
18.84
16.30
13.14
10.57
9.82
11.34
14.36
17.25
18.40
17.01
13.52
9.42
6.50
5.98
7.97
11.49
14.92
16.76
16.32
13.93
10.76
8.27
7.59
9.06
12.05
15.31
17.43
17.43
15.17
11.42
7.46
4.60
3.55
4.18
5.53
6.41
5.95
4.07
1.56
-0.33
-0.49
1.44
5.03
9.12
12.12
12.14
7.12
-4.75
-24.05
-49.06
-75.15
-95.63
-104.07
-97.10
-76.20
-47.32
-18.41
4.02
17.18
22.34
22.94
22.22
21.58
20.59
18.29
14.54
10.47
7.91
8.20
11.28
15.66
19.20
20.18
18.13
14.05
9.88
7.51
7.99
11.02
15.16
18.49
19.55
17.95
14.56
11.13
9.40
10.35
13.68
18.00
21.47
22.66
21.28
18.29
15.38
14.18
15.41
18.52
21.98
24.07
23.73
21.08
17.30
13.92
11.92
11.18
10.65
8.86
4.37
-4.22
-18.26
-38.91
-66.14
-97.50
-127.47
-148.41
-153.18
-138.43
-106.60
-65.40
-24.81
6.93
26.21
34.37
35.64
34.28
32.58
30.64
27.64
23.39
18.93
16.03
16.11
19.17
23.69
27.39
28.45
26.34
22.05
17.55
14.82
14.89
17.52
21.35
24.65
26.08
25.19
22.56
19.45
17.20
16.72
18.17
21.00
24.20
26.70
27.64
26.58
23.52
18.88
13.41
7.95
3.29
-0.08
-2.19
-3.52
-4.84
-6.84
-9.90
-13.92
-18.53
-23.30
-27.98
-32.58
-37.46
-43.16
-50.12
-58.37
-67.20
-75.00
-79.49
-78.38
-70.24
-55.32
-35.68
-14.65
4.30
18.74
27.91
32.54
34.11
33.99
32.89
31.01
28.42
25.48
23.01
21.90
22.65
24.97
27.88
30.11
30.73
29.56
27.17
24.66
23.07
23.02
24.53
27.10
29.89
31.83
31.75
28.49
21.26
10.03
-4.10
-19.07
-32.33
-41.74
-46.31
-46.46
-43.61
-39.49
-35.42
-32.02
-29.39
-27.43
-26.18
-25.74
-26.02
-26.53
-26.39
-24.64
-20.69
-14.70
-7.57
-0.63
4.93
8.47
10.10
10.49
10.44
10.53
10.96
11.58
12.09
12.28
12.08
11.52
10.71
9.77
8.81
7.96
7.29
6.81
6.45
6.09
5.63
5.07
4.48
3.97
3.61
3.39
3.26
3.17
3.17
3.36
3.81
4.47
5.19
5.79
6.14
6.29
6.35
6.48
6.73
7.04
7.30
7.46
7.55
7.65
7.83
8.07
8.23
8.20
7.91
7.38
6.71
6.01
5.32
4.59
3.76
2.80
1.73
0.68
-0.19
-0.70
-0.72
-0.21
0.71
1.78
2.62
2.91
2.50
1.45
0.03
-1.45
-2.81
-4.04
-5.27
-6.62
-8.08
-9.46
-10.51
-11.08
-11.18
-10.95
-10.60
-10.27
-10.00
-9.77
-9.54
-9.31
-9.05
-8.71
-8.16
-7.26
-5.99
-4.43
-2.80
-1.33
-0.20
0.56
1.00
1.22
1.29
1.26
1.14
1.00
0.97
1.20
1.79
2.70
3.79
4.87
5.80
6.56
7.25
7.99
8.78
9.45
9.63
8.92
7.04
4.02
0.17
-3.96
-7.81
-10.97
-13.30
-14.86
-15.89
-16.65
-17.35
-18.10
-18.92
-19.64
-19.94
-19.38
-17.51
-14.11
-9.33
-3.71
1.93
6.79
10.34
12.45
13.34
13.37
12.89
12.15
11.31
10.52
9.93
9.64
9.69
9.91
10.10
10.03
9.63
8.98
8.33
7.94
7.97
8.40
9.02
9.56
9.71
9.32
8.42
7.21
5.98
4.99
4.32
3.89
3.45
2.71
1.36
-0.82
-4.03
-8.29
-13.33
-18.53
-22.88
-25.23
-24.70
-21.00
-14.65
-6.83
0.94
7.27
11.28
12.76
12.20
10.58
9.11
8.87
10.42
13.56
17.33
20.32
21.25
19.71
16.40
13.04
11.61
13.38
18.21
24.43
29.55
31.36
29.07
23.75
17.85
14.34
15.45
21.80
32.08
43.06
49.86
46.76
28.59
-7.05
-57.67
-115.01
-166.47
-198.95
-203.68
-179.72
-134.44
-80.40
-30.39
7.06
29.50
39.48
41.57
39.65
35.79
30.71
25.04
20.03
17.29
17.78
21.07
25.42
28.53
28.84
26.31
22.26
18.63
16.89
17.32
19.03
20.61
20.96
19.81
17.81
16.13
15.86
17.54
20.84
24.19
24.79
19.33
5.51
-16.14
-41.40
-63.24
-74.56
-71.51
-55.41
-32.21
-9.58
6.67
14.82
16.90
16.47
16.05
15.98
15.03
12.20
7.97
4.30
3.40
6.17
11.57
17.13
20.13
19.08
14.52
8.72
4.58
4.22
7.98
14.17
19.94
22.58
20.87
15.75
9.74
5.83
6.00
10.34
17.14
23.67
27.08
24.89
15.13
-3.11
-28.79
-58.01
-84.25
-100.07
-100.21
-84.12
-56.63
-26.01
-0.31
15.91
22.72
23.43
21.91
20.37
18.96
16.89
13.97
11.22
10.23
11.88
15.61
19.66
21.96
21.49
18.71
15.45
13.77
14.83
18.24
22.23
24.62
23.98
20.58
16.24
13.52
14.22
18.55
24.86
30.19
31.12
24.39
7.75
-19.08
-53.34
-88.83
-117.02
-129.80
-122.85
-97.81
-62.00
-25.33
3.80
21.55
29.02
30.19
28.91
27.00
24.38
20.59
16.19
12.96
12.78
16.24
21.92
27.12
29.16
27.02
21.79
16.24
13.34
14.75
19.95
26.50
31.23
31.83
28.02
21.68
15.98
13.83
16.49
23.13
31.11
36.67
35.72
24.56
0.95
-34.36
-76.45
-116.40
-143.65
-149.91
-132.92
-97.80
-55.08
-16.21
11.07
25.02
29.00
28.25
26.78
25.87
24.89
22.97
20.31
18.15
17.70
19.28
22.02
24.44
25.40
24.78
23.30
22.08
21.83
22.47
23.23
23.20
22.03
20.17
18.95
19.77
23.37
29.18
35.03
37.50
32.57
16.92
-10.40
-46.54
-84.60
-115.13
-129.42
-123.03
-97.86
-61.60
-24.45
5.02
22.87
30.16
30.91
29.19
27.13
24.89
21.90
18.39
15.68
15.35
18.01
22.71
27.36
29.75
28.92
25.59
21.83
19.89
21.02
24.80
29.31
32.18
31.95
29.00
25.45
24.06
26.42
31.72
36.82
37.38
29.66
11.72
-16.09
-51.28
-89.44
-124.57
-149.71
-158.53
-147.60
-118.30
-77.10
-33.59
3.03
27.31
38.87
41.24
39.11
35.82
32.53
29.08
25.52
22.87
22.61
25.50
30.70
35.97
38.67
37.40
32.73
27.06
23.44
24.01
28.94
36.19
42.50
44.85
42.00
35.17
27.65
23.55
25.83
34.72
47.15
57.58
59.45
47.17
17.88
-27.41
-83.33
-140.75
-188.47
-215.98
-216.71
-190.42
-143.55
-87.26
-33.55
8.58
35.36
48.05
50.83
48.20
43.39
38.11
33.46
30.42
29.94
32.27
36.55
40.93
43.34
42.66
39.40
35.47
33.08
33.70
37.15
41.63
44.67
44.40
40.66
35.33
31.63
32.60
39.37
49.94
59.32
60.71
47.77
17.10
-30.08
-87.46
-144.79
-190.38
-214.31
-211.41
-182.89
-135.91
-81.25
-29.77
10.68
36.92
49.97
53.27
50.53
44.50
37.01
29.59
24.08
22.27
25.06
31.58
39.19
44.48
44.89
40.05
32.11
24.70
21.37
23.78
30.92
39.54
45.66
46.33
41.11
32.25
23.82
19.99
23.14
32.70
45.17
54.94
55.83
42.74
13.25
-31.08
-84.16
-136.06
-175.26
-192.19
-182.63
-149.50
-101.95
-51.90
-9.59
19.58
35.69
42.36
43.77
42.49
39.13
33.62
26.70
20.55
17.90
20.41
27.52
36.35
42.99
44.44
40.05
31.88
23.77
19.57
21.33
28.41
37.68
45.01
47.08
42.95
34.58
25.98
21.52
23.87
32.66
44.52
54.27
56.38
46.33
21.55
-17.91
-68.57
-123.27
-171.77
-203.14
-209.18
-187.80
-144.33
-89.79
-36.88
4.64
30.70
42.84
45.73
44.16
41.17
37.98
35.02
32.83
32.23
33.69
36.73
39.98
41.74
41.13
38.67
35.98
34.83
36.16
39.39
42.73
44.11
42.37
38.01
33.27
31.23
34.42
43.27
55.24
64.82
64.76
48.31
12.03
-42.08
-105.89
-166.75
-211.00
-228.35
-215.31
-176.26
-121.61
-64.02
-14.19
21.80
42.95
51.79
52.17
47.51
40.33
32.60
26.30
23.29
24.62
29.78
36.59
41.90
43.14
39.64
33.04
26.57
23.39
25.10
30.86
37.81
42.47
42.39
37.43
29.83
23.41
21.85
26.91
37.32
48.81
55.22
50.42
30.35
-5.28
-52.27
-102.30
-144.84
-170.07
-172.04
-150.81
-112.50
-67.07
-24.68
7.66
27.73
37.36
40.20
39.33
36.21
31.14
24.69
18.55
15.23
16.69
22.96
31.69
39.06
41.62
38.10
30.08
21.38
16.21
17.20
24.07
33.75
41.84
44.61
40.76
32.04
22.32
16.13
16.63
24.50
37.55
51.24
59.51
56.05
35.95
-2.34
-55.31
-113.95
-165.48
-197.17
-200.86
-176.22
-130.92
-77.52
-28.48
8.09
30.18
40.58
43.87
43.64
41.41
37.32
31.67
25.86
22.12
22.29
26.62
33.41
39.65
42.57
40.98
35.81
29.62
25.36
24.92
28.23
33.35
37.51
38.56
36.16
32.07
29.18
29.73
33.58
37.69
37.26
27.93
8.00
-20.89
-54.54
-87.99
-116.84
-137.67
-147.66
-144.54
-127.27
-97.31
-59.34
-20.49
11.98
33.30
42.77
43.32
39.42
34.91
31.75
30.28
30.19
31.25
33.43
36.48
39.61
41.65
41.72
39.83
37.08
35.13
35.49
38.59
43.48
48.18
50.52
49.20
44.57
38.75
35.10
36.80
45.17
58.54
71.89
77.90
68.80
39.13
-11.85
-78.76
-150.72
-213.81
-254.91
-265.58
-244.40
-197.23
-134.99
-70.13
-13.06
30.12
57.97
72.55
77.49
76.34
71.86
66.07
60.64
57.09
56.60
59.63
65.56
72.62
78.66
81.94
81.85
79.14
75.42
72.52
71.89
74.41
80.19
88.65
98.21
106.15
108.89
102.66
84.29
51.79
4.93
-54.26
-121.03
-188.12
-246.67
-288.26
-307.18
-301.96
-275.48
-233.48
-182.62
-128.89
-77.30
-32.21
2.49
24.05
32.14
29.56
21.58
13.95
10.54
11.98
16.24
20.40
22.44
22.31
21.53
21.92
24.37
28.40
32.48
34.93
34.68
31.63
26.49
20.27
13.96
8.41
4.45
2.87
4.30
8.86
15.89
24.00
31.45
36.69
38.92
38.26
35.69
32.68
30.61
30.29
31.69
33.93
35.60
35.40
32.79
28.40
23.86
21.14
21.55
25.08
30.18
34.49
35.84
33.38
28.03
22.09
18.41
19.21
25.17
35.04
45.69
52.38
49.48
31.87
-3.08
-53.37
-111.33
-164.82
-200.61
-209.20
-188.55
-144.95
-90.48
-38.20
2.52
28.24
40.76
44.37
43.05
39.08
33.45
27.05
21.42
18.48
19.37
23.61
29.11
33.01
33.32
29.97
24.81
20.52
19.24
21.38
25.50
29.15
30.18
27.96
23.54
19.16
16.98
18.14
22.19
27.26
30.42
28.20
17.42
-3.52
-33.13
-66.09
-94.21
-109.16
-106.00
-85.65
-54.66
-22.32
3.39
18.88
25.30
26.45
25.81
24.74
22.64
18.67
13.32
8.70
7.30
10.29
16.56
23.17
26.77
25.49
19.84
12.60
7.41
6.92
11.55
19.20
26.26
29.38
27.10
20.57
12.86
7.62
7.31
12.31
20.95
30.16
36.17
34.97
23.05
-1.37
-36.62
-76.61
-111.67
-131.67
-130.21
-107.71
-71.50
-32.60
-0.95
18.44
26.35
27.20
25.67
24.25
22.98
20.91
17.83
14.84
13.64
15.16
18.82
22.78
24.96
24.37
21.54
18.25
16.44
17.15
19.92
23.12
24.84
24.03
21.08
17.78
16.38
18.33
23.48
29.77
33.79
31.57
19.77
-3.06
-35.29
-71.59
-103.80
-123.31
-124.23
-106.04
-74.03
-37.26
-4.77
17.81
29.64
33.53
33.33
31.61
29.02
25.25
20.58
16.57
15.36
18.24
24.58
31.85
36.82
37.21
32.96
26.27
20.62
19.05
22.69
30.22
38.38
43.54
43.41
38.16
30.48
24.47
23.89
30.30
42.12
54.72
61.52
55.69
32.21
-10.21
-67.84
-131.98
-190.47
-230.86
-244.09
-227.49
-185.74
-129.19
-70.21
-19.25
17.90
40.42
50.96
53.25
50.39
44.36
36.64
28.92
23.21
21.27
23.65
29.19
35.24
38.84
38.09
33.11
26.00
19.84
17.30
19.31
24.67
30.58
34.00
33.03
27.89
20.77
14.78
12.53
14.83
20.36
26.30
29.52
27.58
19.08
3.80
-17.13
-40.91
-63.05
-78.18
-81.87
-72.56
-52.67
-27.89
-4.82
11.68
20.21
22.50
21.62
20.00
18.49
16.79
14.61
12.52
11.72
13.10
16.43
20.29
22.90
23.03
20.80
17.70
15.71
16.30
19.61
24.34
28.30
29.52
27.26
22.65
18.25
17.10
21.03
29.37
38.79
44.19
40.49
24.33
-4.74
-43.92
-87.50
-127.72
-156.37
-166.75
-155.95
-126.11
-84.22
-39.89
-2.05
23.96
37.47
41.42
39.94
36.17
31.58
26.63
22.02
19.18
19.59
23.64
29.95
35.81
38.33
36.21
30.39
23.72
19.63
20.31
25.67
33.30
39.56
41.35
37.58
29.83
21.60
17.09
19.23
28.43
42.04
54.89
60.46
52.63
27.62
-14.42
-68.36
-124.57
-171.02
-196.79
-195.73
-168.76
-123.50
-71.41
-23.69
12.27
34.23
44.14
45.86
42.91
37.66
31.55
26.01
22.68
22.93
26.86
32.92
38.39
40.61
38.45
33.05
27.23
24.13
25.50
30.81
37.37
41.75
41.50
36.41
28.70
22.23
20.71
26.04
37.21
50.15
58.46
55.03
34.31
-5.27
-59.57
-118.72
-169.38
-198.91
-199.89
-172.99
-126.60
-73.40
-25.45
9.83
30.95
40.81
43.68
42.70
39.10
33.10
25.44
18.16
13.92
14.62
20.14
28.08
34.75
37.00
33.72
26.34
18.22
13.04
13.13
18.37
26.26
33.09
35.66
32.74
25.69
17.77
12.63
12.56
17.47
25.00
31.51
33.40
27.96
13.79
-8.88
-37.80
-68.35
-94.08
-108.35
-106.79
-89.44
-61.08
-29.45
-2.06
16.67
26.44
29.90
30.26
29.44
27.62
24.38
20.03
16.17
14.97
17.70
23.79
30.87
35.91
36.73
33.17
27.27
22.26
21.07
24.90
32.57
41.05
46.81
47.39
42.66
34.95
28.22
26.55
32.20
44.38
58.83
68.71
66.31
45.46
3.87
-55.32
-123.49
-188.24
-236.59
-258.60
-250.26
-214.52
-160.06
-98.39
-40.35
6.49
38.88
57.21
64.09
62.83
56.58
48.23
40.52
35.78
35.47
39.57
46.42
53.15
56.87
55.95
50.90
44.15
39.01
38.09
42.11
49.49
57.02
61.30
60.31
54.46
46.53
40.71
40.82
48.34
61.27
74.15
79.39
69.43
39.24
-11.65
-78.15
-150.32
-215.44
-261.29
-279.27
-266.66
-227.12
-169.36
-104.51
-43.15
6.98
41.99
61.67
68.36
65.79
58.06
49.05
41.93
38.72
39.98
44.71
50.72
55.36
56.54
53.72
48.16
42.48
39.38
40.45
45.34
51.82
56.82
57.80
53.99
46.90
39.80
36.59
39.98
49.98
63.18
73.23
72.49
54.43
16.17
-39.87
-105.80
-169.81
-219.15
-243.66
-238.62
-206.08
-154.04
-93.80
-36.60
9.34
40.29
56.77
62.01
60.05
54.40
47.59
41.46
37.37
36.35
38.68
43.61
49.39
53.79
55.05
52.76
48.08
43.23
40.62
41.68
46.18
52.36
57.62
59.72
57.96
53.74
50.00
49.97
55.14
63.85
71.30
70.98
57.09
26.58
-19.87
-77.89
-140.43
-199.03
-245.02
-270.86
-271.59
-246.28
-198.91
-137.90
-73.97
-17.25
25.49
52.13
64.57
66.97
63.76
58.32
52.70
48.03
45.07
44.34
46.01
49.60
53.74
56.64
56.86
54.02
49.15
44.26
41.57
42.42
46.60
52.38
57.22
58.87
56.46
51.05
45.36
42.76
45.65
53.89
64.23
70.97
67.68
49.24
13.58
-37.43
-98.07
-159.72
-212.38
-246.67
-255.92
-238.01
-196.32
-139.09
-77.30
-21.48
21.10
47.87
60.50
63.14
60.18
54.94
49.39
44.59
41.29
40.11
41.36
44.73
49.06
52.75
54.42
53.52
50.57
46.87
43.98
43.05
44.43
47.70
51.85
55.70
58.24
58.87
57.64
55.27
53.24
53.21
56.54
63.21
71.33
77.22
76.24
63.91
37.06
-5.45
-62.00
-127.77
-194.89
-253.38
-293.04
-306.06
-289.37
-245.71
-183.11
-112.55
-45.04
10.98
51.03
74.64
84.39
84.60
79.99
74.55
70.88
69.97
71.50
74.47
77.87
80.96
83.52
85.68
87.77
90.10
92.79
95.63
98.32
100.57
102.39
104.20
106.59
110.11
115.08
121.56
129.40
138.06
146.35
152.17
152.75
145.19
127.39
98.74
60.13
13.16
-40.89
-101.48
-167.86
-237.40
-304.31
-360.11
-396.12
-407.13
-394.13
-364.48
-329.14
-298.19
-276.82
-263.89
-253.38
-237.81
-211.55
-172.76
-123.32
-67.63
-11.02
41.41
85.48
118.37
138.95
147.71
146.62
138.64
127.03
114.74
104.05
96.38
92.14
90.71
90.62
89.95
87.15
81.62
74.05
65.99
59.10
54.44
51.98
50.83
49.71
47.59
44.06
39.36
34.20
29.36
25.46
22.73
20.99
19.82
18.67
17.11
14.99
12.44
9.82
7.54
5.85
4.81
4.23
3.83
3.36
2.70
1.85
0.98
0.26
-0.15
-0.24
-0.07
0.19
0.39
0.40
0.21
-0.12
-0.49
-0.81
-1.04
-1.15
-1.19
-1.19
-1.15
-1.10
-1.04
-1.01
-1.01
-1.06
-1.10
-1.11
-1.01
-0.81
-0.53
-0.23
0.01
0.13
0.15
0.11
0.07
0.08
0.16
0.30
0.44
0.56
0.64
0.65
0.61
0.49
0.29
0.01
-0.30
-0.60
-0.84
-0.99
-1.09
-1.16
-1.23
-1.26
-1.20
-1.01
-0.68
-0.27
0.17
0.54
0.82
0.98
1.01
0.94
0.81
0.70
0.68
0.78
0.96
1.14
1.20
1.13
0.94
0.71
0.56
0.50
0.53
0.60
0.67
0.72
0.78
0.90
1.05
1.23
1.36
1.41
1.39
1.33
1.30
1.33
1.42
1.53
1.61
1.65
1.68
1.71
1.75
1.80
1.82
1.81
1.78
1.74
1.66
1.53
1.27
0.87
0.32
-0.32
-0.96
-1.51
-1.92
-2.16
-2.21
-2.08
-1.82
-1.47
-1.12
-0.87
-0.79
-0.90
-1.19
-1.60
-2.03
-2.42
-2.70
-2.84
-2.80
-2.58
-2.18
-1.66
-1.12
-0.70
-0.51
-0.60
-0.89
-1.25
-1.54
-1.61
-1.45
-1.11
-0.70
-0.34
-0.08
0.04
0.05
-0.03
-0.19
-0.42
-0.70
-0.97
-1.17
-1.26
-1.22
-1.10
-0.95
-0.80
-0.66
-0.51
-0.34
-0.15
-0.04
-0.08
-0.33
-0.76
-1.24
-1.62
-1.79
-1.75
-1.57
-1.38
-1.26
-1.20
-1.11
-0.92
-0.63
-0.28
0.02
0.24
0.43
0.71
1.14
1.70
2.27
2.70
2.87
2.81
2.62
2.45
2.36
2.35
2.34
2.23
2.01
1.74
1.54
1.50
1.68
1.99
2.33
2.55
2.58
2.40
2.09
1.72
1.37
1.06
0.79
0.55
0.35
0.18
0.04
-0.08
-0.22
-0.42
-0.67
-0.92
-1.11
-1.17
-1.08
-0.92
-0.74
-0.64
-0.66
-0.76
-0.88
-0.91
-0.81
-0.60
-0.34
-0.10
0.09
0.24
0.37
0.48
0.57
0.58
0.48
0.26
-0.03
-0.34
-0.57
-0.65
-0.56
-0.34
-0.08
0.09
0.08
-0.12
-0.43
-0.75
-0.95
-1.02
-0.99
-0.95
-0.96
-1.03
-1.11
-1.19
-1.28
-1.44
-1.74
-2.17
-2.64
-2.98
-3.08
-2.89
-2.48
-2.02
-1.64
-1.40
-1.30
-1.24
-1.20
-1.15
-1.14
-1.17
-1.21
-1.18
-1.00
-0.64
-0.17
0.34
0.80
1.19
1.52
1.80
2.04
2.22
2.32
2.36
2.35
2.28
2.15
1.94
1.66
1.38
1.18
1.10
1.13
1.16
1.10
0.93
0.69
0.49
0.40
0.44
0.54
0.64
0.70
0.71
0.70
0.68
0.64
0.58
0.48
0.32
0.11
-0.12
-0.35
-0.50
-0.55
-0.49
-0.38
-0.32
-0.39
-0.63
-0.97
-1.31
-1.56
-1.70
-1.72
-1.62
-1.38
-1.00
-0.48
0.05
0.46
0.66
0.63
0.50
0.43
0.51
0.71
0.93
1.03
0.98
0.81
0.61
0.48
0.41
0.39
0.36
0.31
0.25
0.20
0.17
0.14
0.11
0.11
0.12
0.18
0.23
0.26
0.24
0.17
0.11
0.08
0.10
0.13
0.12
0.05
-0.08
-0.21
-0.27
-0.22
-0.07
0.13
0.32
0.43
0.42
0.33
0.19
0.08
0.02
-0.02
-0.08
-0.18
-0.32
-0.44
-0.45
-0.32
-0.10
0.11
0.19
0.08
-0.16
-0.45
-0.65
-0.69
-0.57
-0.35
-0.10
0.15
0.37
0.56
0.71
0.78
0.73
0.52
0.18
-0.24
-0.63
-0.89
-0.98
-0.87
-0.61
-0.27
0.06
0.29
0.41
0.38
0.24
0.00
-0.28
-0.56
-0.74
-0.77
-0.61
-0.28
0.14
0.54
0.83
0.97
0.96
0.85
0.65
0.42
0.18
-0.01
-0.11
-0.08
0.03
0.18
0.30
0.34
0.33
0.33
0.38
0.50
0.61
0.65
0.53
0.22
-0.21
-0.66
-0.99
-1.08
-0.90
-0.55
-0.15
0.15
0.29
0.29
0.25
0.24
0.28
0.31
0.25
0.05
-0.25
-0.54
-0.69
-0.64
-0.41
-0.09
0.23
0.48
0.65
0.76
0.83
0.86
0.83
0.69
0.45
0.15
-0.14
-0.35
-0.44
-0.46
-0.45
-0.47
-0.50
-0.50
-0.41
-0.19
0.11
0.44
0.68
0.74
0.56
0.17
-0.35
-0.82
-1.11
-1.14
-0.94
-0.64
-0.40
-0.29
-0.32
-0.39
-0.40
-0.33
-0.22
-0.10
-0.01
0.09
0.22
0.36
0.46
0.45
0.34
0.22
0.20
0.32
0.54
0.72
0.73
0.53
0.17
-0.20
-0.47
-0.57
-0.51
-0.36
-0.17
0.05
0.26
0.44
0.55
0.55
0.44
0.27
0.10
-0.01
-0.04
0.01
0.09
0.15
0.18
0.18
0.16
0.16
0.17
0.19
0.21
0.22
0.26
0.31
0.40
0.47
0.50
0.46
0.33
0.15
-0.05
-0.25
-0.43
-0.56
-0.61
-0.55
-0.35
-0.06
0.25
0.49
0.58
0.51
0.29
-0.01
-0.32
-0.60
-0.81
-0.96
-1.05
-1.08
-1.05
-0.95
-0.79
-0.55
-0.28
-0.01
0.20
0.31
0.31
0.24
0.13
0.03
-0.04
-0.07
-0.01
0.15
0.42
0.76
1.03
1.10
0.86
0.33
-0.33
-0.88
-1.12
-1.01
-0.63
-0.19
0.17
0.38
0.45
0.46
0.47
0.46
0.41
0.30
0.14
-0.00
-0.10
-0.16
-0.19
-0.21
-0.22
-0.22
-0.19
-0.14
-0.09
-0.04
0.03
0.14
0.27
0.40
0.49
0.51
0.42
0.27
0.07
-0.12
-0.30
-0.46
-0.61
-0.76
-0.89
-1.02
-1.12
-1.20
-1.22
-1.17
-1.03
-0.79
-0.50
-0.21
0.02
0.19
0.31
0.40
0.45
0.46
0.39
0.23
0.02
-0.16
-0.25
-0.21
-0.04
0.22
0.49
0.72
0.80
0.71
0.42
0.03
-0.34
-0.52
-0.40
-0.01
0.56
1.11
1.50
1.63
1.51
1.18
0.74
0.28
-0.14
-0.43
-0.56
-0.52
-0.36
-0.17
-0.04
-0.01
-0.09
-0.23
-0.38
-0.51
-0.58
-0.61
-0.58
-0.49
-0.34
-0.16
-0.03
-0.00
-0.09
-0.26
-0.39
-0.41
-0.26
0.01
0.30
0.50
0.53
0.41
0.19
-0.01
-0.13
-0.15
-0.08
0.04
0.16
0.23
0.25
0.19
0.09
-0.01
-0.07
-0.06
0.01
0.07
0.08
0.01
-0.14
-0.29
-0.34
-0.28
-0.12
0.04
0.15
0.19
0.19
0.24
0.35
0.50
0.62
0.65
0.53
0.32
0.06
-0.18
-0.32
-0.35
-0.25
-0.05
0.18
0.34
0.33
0.13
-0.17
-0.43
-0.51
-0.34
-0.01
0.35
0.59
0.62
0.45
0.14
-0.22
-0.55
-0.78
-0.84
-0.68
-0.31
0.17
0.57
0.75
0.65
0.33
-0.04
-0.31
-0.42
-0.38
-0.28
-0.15
-0.00
0.20
0.44
0.65
0.72
0.59
0.25
-0.19
-0.57
-0.75
-0.66
-0.32
0.17
0.68
1.04
1.17
1.04
0.69
0.25
-0.18
-0.51
-0.71
-0.77
-0.71
-0.53
-0.25
0.05
0.29
0.37
0.27
0.07
-0.12
-0.19
-0.10
0.07
0.21
0.20
0.04
-0.21
-0.42
-0.48
-0.38
-0.18
0.02
0.12
0.11
-0.01
-0.18
-0.36
-0.47
-0.50
-0.42
-0.27
-0.09
0.07
0.16
0.17
0.09
-0.05
-0.20
-0.32
-0.35
-0.29
-0.14
0.02
0.13
0.10
-0.06
-0.27
-0.44
-0.45
-0.27
0.04
0.41
0.73
0.91
0.92
0.75
0.45
0.10
-0.23
-0.49
-0.62
-0.64
-0.56
-0.42
-0.25
-0.10
0.01
0.07
0.10
0.11
0.12
0.15
0.19
0.28
0.42
0.59
0.73
0.76
0.59
0.22
-0.26
-0.66
-0.83
