1479957298.00
64.000000
-0.00
-0.00
-0.00
-0.00
-0.00
-0.00
-0.00
-0.00
-0.00
-0.00
0.00
0.01
0.01
-0.00
-0.03
-0.05
-0.05
0.00
0.13
0.36
0.66
1.01
1.37
1.72
2.06
2.40
2.79
3.24
3.80
4.43
5.08
5.70
6.27
6.81
7.36
8.02
8.84
9.91
11.15
12.46
13.72
14.88
15.98
17.18
18.70
20.69
23.37
26.54
29.94
33.27
36.37
39.34
42.48
46.25
50.96
57.02
64.08
71.61
79.05
86.07
92.76
99.63
107.40
116.65
127.92
140.71
154.25
167.66
180.40
192.55
204.77
218.44
232.31
248.67
268.12
290.76
315.41
339.17
357.76
366.58
362.29
344.06
314.27
276.75
235.78
194.58
154.73
116.51
79.84
44.97
12.65
-15.85
-40.04
-60.08
-76.61
-90.22
-101.13
-109.23
-114.15
-115.80
-114.36
-110.79
-106.37
-102.31
-99.44
-97.70
-96.63
-95.57
-94.05
-91.89
-89.44
-87.24
-85.78
-85.22
-85.37
-85.83
-86.20
-86.33
-86.38
-86.81
-88.10
-90.50
-93.89
-97.83
-101.81
-105.52
-109.01
-112.73
-117.32
-123.31
-130.86
-139.63
-149.02
-158.38
-167.35
-175.94
-184.56
-193.87
-204.69
-217.90
-234.13
-253.23
-273.81
-293.08
-307.25
-312.72
-307.32
-291.15
-266.54
-237.15
-206.67
-177.77
-151.79
-128.99
-109.22
-92.27
-77.93
-65.79
-55.14
-45.08
-34.87
-24.26
-13.57
-3.53
5.05
11.66
16.29
19.36
21.60
23.61
25.74
27.98
30.00
31.34
31.58
30.64
28.88
27.17
26.53
27.82
31.21
36.05
41.08
44.92
46.70
46.32
44.42
41.94
39.66
37.90
36.53
35.23
33.79
32.17
30.50
28.91
27.44
26.01
24.47
22.63
20.40
17.83
15.06
12.29
9.73
7.45
5.43
3.47
1.37
-0.99
-3.59
-6.26
-8.82
-11.13
-13.28
-15.42
-17.76
-20.33
-22.92
-25.18
-26.72
-27.37
-27.28
-26.85
-26.50
-26.56
-27.02
-27.65
-28.13
-28.26
-28.02
-27.55
-27.01
-26.46
-25.77
-24.76
-23.25
-21.22
-18.77
-16.11
-13.45
-10.95
-8.64
-6.46
-4.33
-2.17
0.03
2.21
4.23
5.98
7.38
8.45
9.27
9.99
10.69
11.42
12.17
12.97
13.88
14.99
16.45
18.29
20.45
22.72
24.82
26.48
27.46
27.65
27.09
25.99
24.69
23.63
23.18
23.52
24.57
26.01
27.44
28.57
29.32
29.76
29.97
29.86
29.14
27.52
24.92
21.69
18.50
16.08
14.88
14.91
15.80
17.01
18.10
18.79
18.82
17.80
15.24
10.80
4.61
-2.54
-9.34
-14.39
-16.78
-16.36
-13.69
-9.75
-5.65
-2.42
-1.11
-2.84
-8.78
-19.64
-35.24
-54.11
-73.67
-90.99
-103.72
-110.84
-112.92
-111.68
-109.27
-107.55
-107.68
-110.19
-115.08
-122.01
-130.22
-138.56
-145.50
-149.50
-149.40
-144.77
-135.87
-123.33
-107.65
-89.01
-67.29
-42.52
-15.27
13.14
40.92
66.27
87.91
105.36
118.85
128.95
136.19
140.88
143.10
142.91
140.47
136.02
129.87
122.28
113.51
103.88
93.88
84.12
75.27
67.84
62.03
57.72
54.55
52.07
49.89
47.77
45.64
43.58
41.74
40.25
39.18
38.51
38.16
38.00
37.97
38.03
38.20
38.49
38.91
39.46
40.05
40.60
40.99
41.12
40.97
40.66
40.40
40.46
41.07
42.29
44.05
46.13
48.23
50.02
51.22
51.60
51.13
50.01
48.61
47.39
46.63
46.19
45.55
43.91
40.57
35.29
28.41
20.78
13.34
6.78
1.31
-3.33
-7.53
-11.50
-15.04
-17.61
-18.59
-17.64
-14.96
-11.18
-7.18
-3.71
-1.23
0.16
0.60
0.34
-0.32
-1.14
-1.84
-2.18
-2.02
-1.40
-0.49
0.46
1.24
1.77
2.05
2.09
1.82
1.11
-0.17
-2.00
-4.17
-6.29
-8.00
-9.10
-9.66
-10.03
-10.60
-11.65
-13.19
-14.88
-16.29
-16.96
-16.75
-15.82
-14.63
-13.74
-13.61
-14.36
-15.77
-17.45
-18.96
-20.07
-20.77
-21.30
-21.99
-23.23
-25.36
-28.64
-33.08
-38.42
-44.05
-49.08
-52.58
-53.87
-52.75
-49.62
-45.29
-40.82
-37.13
-34.80
-33.91
-34.07
-34.62
-34.87
-34.35
-32.98
-30.98
-28.75
-26.58
-24.59
-22.72
-20.90
-19.20
-17.83
-17.08
-17.12
-17.90
-19.12
-20.36
-21.29
-21.76
-21.80
-21.53
-21.06
-20.34
-19.28
-17.75
-15.68
-13.07
-9.90
-6.23
-2.12
2.31
6.81
11.03
14.63
17.33
19.00
19.67
19.45
18.52
17.07
15.29
13.38
11.56
10.04
8.96
8.41
8.31
8.49
8.63
8.43
7.72
6.56
5.21
4.03
3.35
3.30
3.82
4.67
5.57
6.36
7.05
7.79
8.84
10.40
12.55
15.21
18.14
21.09
23.80
26.18
28.17
29.77
30.91
31.47
31.38
30.66
29.54
28.35
27.39
26.76
26.28
25.57
24.28
22.32
19.99
17.94
16.89
17.32
19.22
22.04
24.84
26.62
26.63
24.54
20.55
15.30
9.75
4.95
1.80
0.81
1.91
4.38
7.13
9.04
9.49
8.55
7.06
6.12
6.69
9.12
13.05
17.57
21.47
23.64
23.25
20.06
14.54
7.74
1.11
-3.98
-6.70
-7.02
-5.64
-3.68
-2.16
-1.56
-1.80
-2.35
-2.64
-2.31
-1.37
-0.12
1.06
1.79
1.78
0.80
-1.47
-5.36
-11.14
-18.73
-27.53
-36.44
-44.19
-49.71
-52.61
-53.19
-52.26
-50.77
-49.37
-48.31
-47.42
-46.34
-44.75
-42.47
-39.55
-36.18
-32.67
-29.29
-26.22
-23.45
-20.86
-18.34
-15.93
-13.85
-12.39
-11.74
-11.78
-12.04
-11.89
-10.88
-8.95
-6.46
-3.97
-1.89
-0.34
0.94
2.31
4.05
6.15
8.46
10.80
13.10
15.38
17.58
19.48
20.63
20.62
19.32
17.07
14.63
12.85
12.37
13.25
15.09
17.18
18.79
19.43
18.86
17.07
14.20
10.54
6.45
2.36
-1.36
-4.47
-6.87
-8.59
-9.68
-10.18
-10.08
-9.42
-8.31
-6.94
-5.59
-4.54
-4.06
-4.36
-5.55
-7.54
-10.08
-12.78
-15.24
-17.10
-18.13
-18.15
-17.11
-15.14
-12.62
-10.29
-8.99
-9.39
-11.53
-14.69
-17.58
-18.84
-17.64
-14.00
-8.72
-2.93
2.41
6.72
9.83
11.72
12.41
11.99
10.71
9.09
7.81
7.42
8.08
9.56
11.35
13.03
14.38
15.45
16.36
17.19
17.87
18.26
18.26
17.89
17.22
16.42
15.62
14.94
14.46
14.17
14.04
13.96
13.82
13.57
13.25
12.94
12.77
12.81
13.12
13.68
14.36
14.97
15.18
14.68
13.20
10.72
7.58
4.33
1.66
0.06
-0.32
0.24
1.15
1.81
1.77
0.98
-0.33
-1.78
-2.97
-3.66
-3.86
-3.76
-3.63
-3.74
-4.20
-4.94
-5.77
-6.47
-6.95
-7.25
-7.56
-8.12
-9.01
-10.18
-11.40
-12.39
-12.95
-13.01
-12.61
-11.89
-10.97
-9.96
-8.96
-8.07
-7.43
-7.14
-7.17
-7.35
-7.36
-6.97
-6.09
-4.81
-3.36
-1.90
-0.47
0.91
2.07
2.61
2.01
-0.07
-3.46
-7.48
-11.19
-13.77
-14.90
-14.79
-13.95
-12.85
-11.71
-10.45
-8.86
-6.87
-4.61
-2.38
-0.51
0.81
1.54
1.77
1.68
1.43
1.16
0.91
0.71
0.56
0.50
0.60
0.88
1.35
1.92
2.44
2.77
2.80
2.57
2.24
2.02
2.16
2.79
3.84
5.12
6.38
7.36
7.91
7.95
7.49
6.58
5.37
4.09
3.02
2.38
2.30
2.73
3.47
4.25
4.86
5.23
5.41
5.48
5.42
5.15
4.54
3.61
2.52
1.63
1.31
1.72
2.73
3.89
4.64
4.52
3.37
1.31
-1.35
-4.30
-7.28
-10.05
-12.39
-14.04
-14.85
-14.90
-14.47
-14.01
-13.83
-13.99
-14.25
-14.27
-13.80
-12.86
-11.67
-10.49
-9.45
-8.49
-7.45
-6.25
-4.92
-3.55
-2.21
-0.89
0.50
1.99
3.47
4.77
5.83
6.74
7.73
8.93
10.18
10.92
10.40
8.05
3.88
-1.43
-6.76
-11.08
-14.04
-16.13
-18.43
-22.06
-27.48
-34.21
-41.08
-46.90
-51.10
-54.11
-57.16
-61.78
-69.07
-79.36
-92.12
-106.10
-119.51
-130.33
-136.64
-137.12
-131.60
-121.26
-108.38
-95.53
-84.74
-76.93
-72.05
-69.62
-69.39
-71.53
-76.49
-84.55
-95.44
-107.99
-120.16
-129.17
-131.97
-126.00
-110.21
-85.86
-56.34
-26.05
1.46
24.88
45.37
65.17
85.57
105.42
121.31
129.35
127.45
116.69
100.86
84.52
70.75
60.02
50.63
40.36
28.09
14.45
1.16
-10.20
-19.25
-26.95
-34.97
-44.61
-55.97
-67.75
-77.61
-82.95
-81.73
-73.16
-57.98
-38.14
-16.13
5.79
26.12
44.08
59.17
70.70
77.59
78.82
74.09
64.24
51.21
37.40
24.91
15.00
8.07
4.09
3.09
5.60
12.66
25.59
45.65
73.82
110.61
155.84
208.32
265.55
323.61
377.45
421.78
452.21
466.36
464.44
449.08
424.50
395.34
365.66
338.21
314.36
294.16
276.58
259.87
241.95
220.88
195.38
165.40
132.11
97.65
64.41
33.56
4.16
-27.05
-64.23
-109.87
-162.09
-213.80
-254.56
-274.61
-269.42
-242.36
-203.90
-167.87
-146.82
-148.34
-173.76
-218.74
-274.56
-329.72
-371.59
-389.07
-376.17
-335.43
-278.75
-224.37
-190.17
-186.36
-211.20
-251.76
-289.99
-310.63
-307.07
-282.74
-247.85
-213.85
-188.84
-175.81
-173.63
-179.36
-190.22
-203.69
-216.93
-226.12
-226.85
-215.52
-191.11
-155.99
-115.61
-76.69
-44.74
-22.10
-6.96
6.43
26.09
59.50
110.69
177.54
251.30
318.50
364.85
379.77
359.44
307.62
233.96
151.08
71.37
4.81
-42.20
-67.14
-71.07
-57.76
-32.40
-0.13
35.48
72.76
111.54
151.90
193.03
233.26
270.29
301.96
326.68
343.29
350.72
347.84
333.74
308.19
272.54
229.84
184.44
140.68
101.56
67.71
37.25
6.72
-27.73
-69.22
-119.56
-178.67
-244.04
-310.55
-370.90
-417.22
-443.44
-447.53
-432.11
-403.31
-368.00
-331.08
-294.42
-257.54
-219.77
-181.73
-145.80
-114.57
-88.99
-66.98
-43.60
-12.48
32.20
93.78
171.53
259.98
349.69
429.41
489.28
523.89
533.60
523.58
500.67
469.94
432.75
387.34
331.17
263.51
186.90
106.71
29.37
-39.35
-95.17
-135.75
-160.47
-170.60
-169.38
-160.98
-149.01
-134.74
-116.45
-90.75
-55.28
-11.41
35.00
75.45
102.13
111.30
104.28
85.99
61.86
34.98
4.84
-31.71
-78.10
-135.52
-201.39
-269.41
-331.07
-378.29
-405.94
-413.32
-404.05
-384.37
-360.40
-336.34
-313.71
-292.18
-271.04
-250.16
-230.06
-211.12
-192.80
-173.67
-151.94
-126.53
-97.48
-65.66
-32.13
2.88
40.80
84.74
138.51
204.57
281.77
364.06
441.15
501.43
535.83
540.76
518.97
477.64
424.96
367.13
307.00
244.44
177.98
106.49
30.45
-47.60
-123.30
-190.96
-244.64
-279.29
-291.64
-280.79
-247.95
-196.83
-133.88
-68.29
-11.33
25.49
33.12
7.76
-47.44
-122.56
-203.27
-274.52
-324.43
-347.07
-343.23
-319.23
-284.00
-245.87
-210.20
-178.80
-150.87
-124.81
-99.71
-75.70
-53.28
-32.34
-11.86
9.79
33.90
60.83
89.85
119.54
148.88
177.96
208.14
241.18
278.01
317.69
357.50
393.80
423.46
445.00
458.65
465.77
467.91
466.39
462.33
456.82
450.94
445.17
438.78
429.58
414.58
391.30
358.97
318.98
274.25
227.94
182.21
137.68
93.54
48.19
-0.12
-52.65
-109.16
-167.01
-220.57
-261.84
-282.64
-277.85
-248.17
-200.82
-147.54
-100.70
-69.06
-55.55
-57.80
-70.64
-89.22
-110.89
-135.34
-163.33
-195.22
-230.36
-267.40
-305.09
-342.54
-378.95
-412.67
-440.61
-458.55
-462.51
-450.46
-423.56
-386.12
-344.26
-303.95
-269.18
-241.23
-218.89
-199.56
-180.44
-159.42
-135.57
-108.97
-80.55
-51.56
-23.07
4.45
31.42
59.61
92.34
134.00
188.55
257.39
337.28
419.99
494.04
548.43
576.47
578.08
559.11
528.08
492.33
455.27
416.13
371.87
319.79
258.87
189.81
114.08
33.37
-49.56
-129.78
-199.63
-249.88
-272.59
-264.55
-229.21
-175.83
-116.03
-59.69
-12.38
24.65
52.27
70.91
79.76
77.50
64.28
42.77
17.49
-7.41
-30.37
-53.40
-81.46
-119.74
-170.83
-232.69
-298.44
-358.18
-402.17
-424.06
-422.87
-402.99
-371.71
-336.01
-300.04
-264.51
-228.16
-190.10
-151.36
-114.66
-82.78
-56.47
-33.71
-10.40
17.98
54.86
101.87
158.67
223.07
291.12
357.45
416.06
461.72
491.48
505.41
506.09
497.09
481.36
460.37
434.21
402.72
366.24
325.72
282.10
235.45
184.42
126.64
60.02
-15.38
-95.77
-173.21
-236.87
-275.90
-283.04
-257.27
-204.42
-135.11
-61.22
7.57
65.43
110.24
142.06
161.73
170.41
169.94
163.30
154.33
146.74
142.73
142.33
143.89
144.94
143.69
139.60
133.08
124.62
113.99
100.02
81.21
56.74
27.08
-5.83
-39.36
-71.24
-100.74
-129.00
-158.63
-192.90
-234.56
-285.15
-344.06
-408.02
-471.12
-525.92
-565.12
-584.01
-581.90
-561.81
-528.97
-488.01
-440.90
-386.20
-320.74
-242.63
-153.45
-61.32
22.47
85.56
118.57
118.22
88.64
40.20
-13.69
-60.72
-92.99
-107.84
-107.27
-95.53
-76.95
-54.67
-30.73
-6.78
15.53
34.87
51.44
67.66
88.60
120.34
167.19
228.69
298.17
363.98
413.10
436.25
431.37
404.29
365.82
327.07
294.88
270.19
249.25
226.96
200.34
169.74
138.00
108.25
81.76
57.18
31.29
0.42
-38.40
-86.67
-144.42
-209.95
-279.49
-347.03
-405.16
-446.85
-467.79
-468.07
-451.96
-426.18
-397.24
-369.39
-344.25
-321.86
-302.09
-285.31
-271.93
-261.23
-250.59
-235.81
-212.18
-175.72
-123.92
-55.93
26.85
120.32
217.35
308.23
382.34
430.95
449.84
440.48
409.07
363.88
312.46
260.32
211.39
169.22
137.81
120.71
119.21
130.73
148.85
165.62
174.77
174.24
166.61
157.54
152.66
155.17
164.95
179.40
195.17
209.47
220.39
226.36
225.11
212.87
184.90
137.32
69.78
-12.88
-101.14
-183.79
-251.74
-300.78
-331.93
-349.40
-357.79
-360.42
-359.37
-356.66
-354.98
-357.14
-364.42
-375.31
-385.69
-390.75
-387.31
-375.26
-357.05
-336.07
-315.20
-296.14
-279.62
-265.85
-254.57
-245.08
-236.24
-226.65
-215.31
-202.28
-188.65
-176.18
-166.10
-158.24
-150.63
-139.95
-121.90
-91.97
-46.40
16.50
95.27
185.04
278.49
368.19
449.23
521.20
587.48
653.00
721.01
790.90
858.18
916.20
960.55
989.24
1002.43
1000.89
984.46
951.46
898.72
824.66
730.04
618.04
493.56
362.98
234.03
114.93
12.70
-68.82
-130.09
-175.50
-210.92
-240.78
-266.22
-285.58
-296.83
-300.02
-298.27
-296.19
-297.34
-302.29
-308.85
-313.77
-315.34
-314.68
-315.36
-321.70
-337.26
-363.87
-401.21
-446.96
-496.67
-544.11
-582.25
-604.87
-608.41
-593.18
-562.99
-523.56
-480.35
-437.22
-396.34
-359.05
-326.95
-301.86
-284.80
-274.82
-268.64
-261.77
-250.54
-233.94
-213.84
-194.03
-178.03
-167.00
-158.71
-148.26
-129.34
-96.20
-45.40
22.67
102.77
184.78
255.04
299.78
309.60
283.41
229.70
164.09
103.71
61.02
40.09
36.84
42.78
50.05
54.95
58.01
61.94
68.67
77.78
87.24
95.04
100.60
104.67
107.59
108.04
102.96
89.53
67.47
40.67
16.49
3.34
7.63
31.54
72.43
123.65
176.32
221.07
249.91
257.71
243.57
211.15
167.53
120.94
78.15
42.54
13.87
-10.08
-31.74
-52.09
-70.38
-84.92
-94.20
-97.70
-95.81
-89.27
-78.30
-62.17
-39.58
-9.70
26.66
66.61
105.96
140.62
168.37
189.76
207.77
226.26
248.04
273.46
300.30
324.88
343.87
355.75
361.22
362.48
361.74
359.82
355.61
346.36
328.75
300.17
259.37
206.50
142.77
70.44
-6.66
-82.47
-148.93
-197.79
-223.45
-225.49
-209.09
-182.86
-154.82
-129.12
-105.36
-80.66
-53.25
-24.75
0.13
16.38
21.85
18.78
12.61
8.86
10.24
15.47
20.10
18.91
8.11
-13.99
-47.47
-91.62
-145.14
-205.54
-268.28
-326.80
-373.82
-403.58
-413.75
-406.10
-385.43
-357.53
-327.33
-298.21
-272.01
-249.77
-231.81
-217.41
-204.22
-188.12
-163.80
-125.95
-70.84
2.13
89.35
183.02
272.76
348.34
402.62
433.55
443.83
438.77
423.19
399.09
364.99
317.41
253.49
173.58
82.58
-10.55
-94.95
-160.70
-201.31
-214.79
-203.26
-171.59
-125.65
-71.49
-15.12
37.36
79.94
107.69
118.14
112.25
94.22
69.96
45.00
22.38
1.71
-20.34
-48.42
-85.88
-132.67
-184.67
-234.86
-275.76
-302.27
-313.21
-311.11
-300.54
-285.90
-269.97
-253.57
-236.31
-217.67
-197.80
-177.70
-158.68
-141.82
-127.40
-114.72
-102.17
-87.50
-68.08
-41.13
-4.07
44.87
105.40
174.36
245.86
312.75
369.15
412.61
444.84
470.40
493.97
517.73
540.36
557.99
566.34
562.51
545.74
516.67
476.09
424.28
361.07
286.56
201.87
109.61
14.12
-78.62
-161.61
-227.83
-271.69
-290.41
-284.75
-258.86
-219.30
-173.47
-128.13
-88.45
-57.60
-36.74
-25.24
-21.08
-21.48
-23.49
-24.80
-24.40
-22.90
-22.52
-26.77
-39.84
-65.38
-104.87
-156.39
-214.13
-269.52
-313.72
-340.56
-348.71
-341.88
-327.00
-311.15
-298.82
-290.71
-284.61
-277.55
-267.97
-256.68
-246.11
-238.72
-235.13
-233.33
-229.35
-218.39
-196.14
-159.44
-106.49
-37.20
46.36
139.58
235.54
326.26
404.71
466.46
510.18
536.69
547.13
541.26
516.96
471.38
403.14
314.59
212.59
107.37
9.91
-71.05
-130.94
-169.45
-188.75
-191.17
-177.43
-147.32
-101.76
-45.13
13.96
64.68
97.78
109.27
101.89
83.40
62.73
46.16
35.26
27.08
16.50
-1.33
-29.28
-67.78
-114.97
-167.04
-218.63
-263.47
-295.79
-311.91
-311.58
-298.07
-276.90
-253.82
-232.87
-215.69
-201.93
-190.36
-179.73
-169.17
-158.03
-145.72
-131.64
-115.59
-98.00
-79.82
-62.07
-45.16
-28.22
-8.66
17.59
54.89
106.00
170.09
241.89
312.58
372.61
415.07
438.01
444.52
440.65
432.18
422.09
409.98
393.23
369.00
335.80
293.53
242.48
182.19
111.21
28.51
-63.96
-159.81
-248.66
-318.58
-360.48
-371.27
-354.44
-317.75
-269.71
-216.82
-162.89
-110.13
-60.83
-18.31
13.77
32.62
37.17
28.04
6.71
-25.07
-65.25
-110.90
-158.15
-202.31
-238.83
-264.26
-276.94
-277.05
-266.35
-247.60
-224.13
-199.34
-176.10
-156.43
-141.54
-131.57
-125.83
-122.84
-120.55
-116.76
-109.68
-98.43
-83.63
-67.03
-50.93
-37.20
-26.47
-17.85
-9.08
3.17
22.75
53.26
96.96
153.45
218.86
286.43
348.55
399.49
437.63
465.77
489.31
513.10
538.92
564.68
585.78
597.44
596.55
582.20
554.73
514.51
461.40
395.17
316.46
227.48
131.97
34.59
-59.99
-147.66
-224.85
-288.05
-333.72
-358.67
-361.55
-344.11
-311.83
-273.03
-236.85
-210.90
-199.79
-205.06
-225.90
-259.72
-301.94
-345.53
-381.35
-399.99
-395.04
-366.13
-319.92
-267.85
-221.63
-188.65
-169.91
-160.92
-155.15
-147.61
-136.55
-122.90
-108.11
-92.50
-75.01
-54.32
-30.65
-6.40
14.25
27.32
30.98
26.68
18.80
13.12
15.19
29.00
56.36
96.62
146.63
200.89
252.58
295.13
324.47
340.52
347.35
351.67
360.15
377.16
403.46
436.65
472.60
506.93
535.79
555.86
564.02
557.51
534.42
494.52
439.74
373.80
301.63
228.21
157.53
92.25
33.64
-18.23
-63.99
-104.22
-138.81
-166.55
-185.38
-193.56
-191.05
-180.46
-166.84
-156.21
-153.73
-162.42
-183.26
-216.25
-261.12
-316.93
-380.67
-445.97
-503.44
-543.13
-558.02
-546.63
-513.33
-465.98
-412.75
-359.89
-311.36
-269.85
-238.01
-218.40
-212.00
-216.74
-227.27
-236.63
-238.97
-231.87
-216.89
-198.11
-179.84
-164.61
-152.55
-142.02
-130.94
-117.90
-102.62
-85.73
-68.40
-51.80
-36.84
-23.96
-12.98
-2.96
7.75
21.69
42.04
72.29
115.39
172.44
241.43
317.08
392.07
459.41
514.89
558.26
592.50
621.56
647.89
671.21
689.05
698.33
696.96
684.40
660.98
627.07
582.71
528.22
465.29
397.70
330.83
270.09
219.12
178.52
145.61
115.78
84.10
46.87
2.47
-48.13
-101.00
-149.54
-185.80
-203.19
-199.52
-178.75
-150.30
-125.53
-113.24
-116.35
-131.66
-152.77
-174.02
-193.44
-213.19
-237.73
-270.89
-313.43
-362.12
-410.32
-449.84
-473.16
-475.38
-455.58
-416.51
-363.23
-301.52
-236.75
-173.72
-116.98
-70.98
-39.23
-23.04
-20.38
-26.11
-33.64
-37.38
-34.56
-25.79
-14.02
-3.01
4.31
6.66
4.34
-1.37
-8.86
-16.62
-23.50
-28.68
-31.66
-32.36
-31.01
-28.03
-23.81
-18.43
-11.70
-3.39
6.40
16.97
27.08
35.42
41.05
43.84
44.44
43.93
43.43
43.61
44.61
46.03
47.17
47.25
45.68
42.20
37.03
30.83
24.43
18.64
13.96
10.52
8.11
6.36
4.82
3.05
0.75
-2.16
-5.33
-7.89
-8.66
-6.56
-1.16
6.93
16.23
24.96
31.78
36.35
39.33
41.85
44.86
48.66
52.91
57.33
62.33
69.22
79.60
94.18
111.63
128.41
139.71
141.30
131.44
111.78
86.80
61.90
41.28
26.43
15.87
6.18
-6.55
-25.55
-52.95
-89.60
-134.71
-185.11
-234.98
-276.56
-302.34
-308.04
-294.78
-269.00
-239.88
-215.56
-200.21
-193.68
-193.67
-198.83
-210.16
-230.07
-259.06
-292.89
-322.44
-336.23
-324.87
-284.50
-218.05
-134.09
-44.73
36.83
98.67
132.52
136.56
117.32
89.27
70.97
78.49
119.07
188.15
271.52
351.66
414.88
455.50
475.69
481.71
479.29
470.95
456.18
433.48
402.26
363.74
319.40
269.11
210.31
139.04
53.19
-44.52
-145.62
-237.86
-309.57
-354.50
-374.28
-377.21
-374.11
-373.43
-378.34
-386.86
-394.61
-398.00
-396.17
-390.65
-383.62
-376.19
-367.74
-356.67
-341.76
-323.05
-302.01
-280.86
-261.55
-244.82
-230.34
-216.99
-203.36
-188.56
-172.38
-155.08
-136.91
-117.98
-98.69
-80.56
-66.27
-58.97
-60.66
-70.73
-85.64
-100.09
-109.33
-111.10
-106.48
-98.81
-91.71
-87.53
-86.83
-88.91
-92.69
-97.14
-101.12
-103.07
-100.70
-91.35
-72.95
-44.58
-6.80
38.32
87.75
138.41
187.08
231.27
270.01
304.07
335.38
365.58
394.49
419.59
437.20
443.72
438.53
425.11
410.25
401.76
406.08
426.96
464.63
517.90
583.62
657.73
735.17
809.65
873.93
920.40
942.30
934.53
898.46
835.74
748.68
639.96
511.97
367.06
208.15
39.87
-132.10
-297.55
-445.84
-568.48
-661.52
-726.46
-768.39
-792.60
-801.41
-794.48
-769.05
-724.22
-665.11
-601.16
-543.25
-499.54
-472.73
-460.48
-458.24
-462.27
-471.55
-486.40
-504.32
-518.41
-518.43
-494.52
-441.24
-359.68
-256.50
-141.63
-25.31
84.46
182.44
265.97
334.43
389.05
432.48
468.17
499.40
528.50
556.78
585.87
617.53
652.54
689.75
725.59
755.05
773.43
777.52
767.16
744.53
712.26
672.13
624.31
567.77
501.56
428.83
351.88
273.56
196.72
123.04
51.98
-19.02
-93.47
-174.35
-262.13
-355.32
-450.63
-543.49
-628.57
-699.91
-751.65
-779.52
-782.51
-763.53
-729.40
-687.66
-643.68
-598.97
-552.11
-501.66
-449.41
-403.13
-372.20
-364.68
-382.72
-420.16
-463.82
-497.72
-508.65
-490.82
-447.37
-387.74
-323.66
-264.19
-213.27
-170.32
-132.58
-97.81
-66.00
-38.92
-18.02
-3.03
9.23
23.67
44.60
74.41
113.48
161.17
217.19
282.31
357.38
441.83
532.19
621.94
702.68
767.53
812.87
838.78
847.76
843.09
827.69
806.44
782.16
756.10
727.96
695.82
656.70
607.42
544.32
466.22
374.37
271.84
163.72
55.90
-46.76
-140.62
-224.55
-299.56
-367.56
-429.97
-486.31
-533.52
-567.41
-585.02
-586.97
-579.78
-572.65
-574.11
-588.09
-611.55
-635.21
-648.18
-644.11
-625.24
-601.47
-584.41
-579.90
-584.33
-585.97
-570.94
-530.67
-466.00
-385.96
-302.49
-224.24
-154.03
-89.71
-27.77
33.21
91.53
144.10
189.28
229.36
270.81
320.88
384.21
459.78
540.30
615.18
675.18
716.64
741.78
758.31
774.46
795.49
821.08
845.94
862.65
864.61
848.05
812.43
763.32
705.02
640.66
571.78
498.64
420.86
337.56
247.16
147.41
35.82
-90.93
-231.96
-381.66
-529.87
-663.73
-771.85
-847.93
-892.50
-911.62
-914.09
-906.74
-892.60
-872.92
-845.95
-809.83
-763.93
-708.88
-645.96
-577.14
-504.81
-432.31
-363.76
-302.42
-250.09
-206.31
-169.14
-136.04
-105.16
-75.57
-47.58
-22.49
-1.35
15.02
26.35
33.20
37.27
41.65
51.18
71.84
109.01
166.22
242.86
333.19
427.43
514.95
587.60
643.26
685.91
722.38
758.96
797.71
834.89
862.85
873.55
862.10
828.38
779.07
720.22
655.83
587.05
512.60
430.34
338.57
237.05
126.68
8.61
-116.56
-247.71
-380.59
-508.38
-622.63
-716.07
-784.42
-827.45
-848.41
-852.31
-844.35
-825.98
-796.31
-753.20
-698.47
-639.61
-585.70
-543.90
-516.02
-497.10
-477.44
-447.50
-402.14
-342.64
-275.23
-207.27
-144.00
-87.09
-35.45
12.35
56.35
95.02
126.50
150.69
170.57
191.54
220.04
260.80
314.18
375.48
436.06
486.38
520.22
537.71
544.57
550.44
564.48
591.36
630.36
675.86
719.92
755.05
775.89
779.50
765.11
736.28
696.02
647.56
593.36
534.97
472.94
406.69
334.28
252.83
159.30
50.97
-69.65
-194.62
-311.09
-404.66
-464.78
-489.62
-487.79
-475.52
-472.07
-489.51
-529.66
-584.55
-641.05
-687.05
-715.44
-725.26
-719.87
-704.22
-681.13
-653.40
-624.45
-598.72
-580.84
-573.07
-573.22
-574.43
-567.47
-543.98
-500.82
-441.06
-372.50
-304.25
-243.31
-192.81
-152.60
-120.72
-94.79
-73.08
-54.06
-35.47
-13.62
16.44
59.82
119.46
194.81
281.00
369.79
452.65
523.62
581.98
632.12
680.84
732.81
787.96
841.06
883.85
908.86
912.12
893.88
857.05
808.24
750.49
683.74
606.36
516.91
415.16
301.98
178.74
47.37
-89.57
-226.64
-355.78
-468.32
-557.79
-622.11
-664.31
-690.88
-708.78
-722.69
-734.50
-743.61
-748.61
-749.86
-747.07
-739.15
-723.83
-698.23
-660.10
-609.55
-549.16
-483.44
-417.57
-355.28
-298.09
-245.14
-193.94
-141.75
-87.26
-30.86
25.56
79.53
129.42
174.90
216.99
257.74
299.78
345.34
396.46
453.88
515.87
577.72
632.35
672.68
694.68
699.89
693.51
684.06
679.39
683.32
694.18
706.00
711.40
704.44
685.76
657.48
622.59
583.25
540.37
493.82
443.36
389.43
331.97
271.71
208.05
139.13
62.09
-25.18
-122.12
-223.56
-320.69
-404.48
-468.78
-512.95
-540.48
-556.23
-563.69
-564.16
-559.35
-551.90
-547.21
-551.91
-571.34
-605.84
-649.21
-690.50
-718.41
-726.28
-714.19
-689.58
-662.59
-640.57
-624.14
-607.34
-581.45
-540.06
-482.37
-412.94
-338.89
-265.90
-195.59
-125.96
-54.04
21.24
98.13
173.40
244.72
312.20
378.10
444.99
513.00
577.72
630.54
662.22
667.44
648.29
614.22
578.71
553.47
545.26
553.63
572.32
592.86
608.21
614.73
614.08
608.22
597.94
582.39
559.28
525.89
480.00
419.10
341.93
248.55
140.66
22.09
-99.78
-216.11
-319.37
-405.68
-475.43
-532.27
-580.72
-624.24
-664.05
-699.45
-729.31
-753.00
-771.22
-783.24
-786.68
-778.32
-755.87
-719.18
-670.60
-614.37
-555.44
-497.24
-440.62
-384.02
-324.25
-257.38
-180.01
-90.16
11.61
121.19
231.73
335.29
424.86
496.96
552.79
597.37
637.18
677.01
717.69
756.76
790.13
813.83
825.46
824.06
809.41
781.63
743.66
697.62
645.90
591.08
535.38
480.20
425.46
369.87
311.93
250.88
186.65
120.65
54.89
-9.05
-70.21
-129.08
-187.81
-249.90
-319.21
-398.66
-487.89
-581.25
-669.66
-742.89
-793.77
-820.90
-828.82
-825.52
-818.71
-812.26
-805.40
-796.75
-783.42
-763.99
-738.92
-709.57
-676.64
-639.50
-596.41
-545.86
-487.93
-423.66
-356.36
-289.85
-227.20
-169.65
-116.43
-65.32
-13.61
41.11
101.10
167.81
241.82
321.80
403.76
481.00
545.61
591.25
615.48
621.13
614.42
602.19
589.09
576.23
561.67
542.60
517.34
486.37
451.85
416.49
382.48
351.09
322.72
297.44
275.46
257.42
244.23
236.67
234.92
238.45
245.85
255.12
264.01
270.32
271.52
264.31
244.91
210.16
159.11
94.27
21.30
-53.15
-123.28
-186.73
-245.44
-303.93
-366.31
-433.77
-503.89
-571.66
-631.94
-682.06
-721.00
-748.58
-764.04
-765.76
-751.96
-721.84
-676.42
-618.76
-553.36
-484.47
-415.64
-348.74
-283.86
-220.08
-156.33
-92.40
-29.52
30.03
83.77
129.82
167.78
198.89
225.06
248.40
270.97
294.72
321.69
353.41
389.73
428.04
463.55
490.35
504.71
507.29
502.47
497.78
500.73
515.76
542.96
578.74
616.83
651.19
676.93
690.48
689.42
672.41
639.36
591.98
537.07
479.46
422.52
367.21
311.57
251.36
181.34
97.71
-0.62
-107.58
-212.47
-302.38
-366.87
-401.73
-410.45
-403.45
-394.71
-397.67
-421.25
-469.37
-538.55
-619.94
-701.88
-773.19
-825.79
-856.01
-864.62
-855.68
-835.79
-811.47
-787.71
-766.01
-743.59
-713.84
-668.68
-601.98
-511.73
-402.47
-282.83
-162.40
-48.42
55.40
148.73
232.97
310.15
381.98
449.14
511.02
564.70
605.11
626.35
624.72
601.37
563.27
521.45
485.88
463.62
456.20
462.28
476.86
494.41
509.17
517.75
518.78
512.19
499.14
481.25
460.16
436.65
410.30
378.81
338.43
284.82
214.71
128.30
30.16
-71.80
-168.00
-250.76
-317.36
-370.48
-416.22
-460.87
-507.98
-557.49
-606.83
-652.80
-692.99
-725.74
-750.59
-765.43
-767.12
-752.62
-720.55
-672.05
-610.68
-541.39
-469.02
-396.94
-326.39
-257.38
-189.64
-123.48
-60.49
-3.00
46.85
88.03
121.51
150.06
177.06
205.87
239.54
280.28
328.78
383.34
439.03
488.93
526.14
546.38
549.23
539.67
526.10
517.16
518.53
530.89
551.18
574.27
594.72
607.90
610.55
600.40
576.37
541.61
498.88
451.15
400.81
349.17
295.59
237.62
171.09
91.77
-2.43
-110.55
-224.92
-333.43
-423.68
-487.65
-524.42
-540.57
-546.80
-553.23
-565.82
-584.29
-603.66
-617.18
-620.19
-610.39
-589.03
-560.61
-531.61
-509.06
-498.23
-501.28
-516.48
-538.45
-558.83
-568.43
-559.01
-525.21
-466.06
-385.20
-289.72
-189.04
-92.03
-4.59
70.94
135.73
192.64
244.91
295.62
347.55
402.54
460.52
518.42
569.76
606.74
623.19
617.78
594.17
561.43
530.53
510.33
504.73
511.73
525.61
539.78
549.03
550.42
542.95
526.45
500.84
469.21
432.91
392.72
349.13
302.13
250.47
191.26
120.56
35.45
-64.74
-174.23
-281.47
-372.75
-437.39
-472.05
-481.95
-478.49
-473.95
-477.08
-490.74
-512.49
-537.12
-559.40
-575.44
-582.43
-579.41
-566.07
-544.67
-520.86
-502.27
-494.62
-497.94
-504.65
-502.15
-478.34
-427.17
-351.62
-261.90
-170.23
-85.45
-10.23
58.13
124.23
191.73
262.20
334.32
404.84
469.02
521.14
555.71
569.33
561.99
536.70
500.11
460.02
423.28
394.45
375.75
367.68
369.49
378.66
391.11
401.73
405.14
397.71
379.01
351.82
320.60
291.95
268.22
247.93
226.91
199.65
161.15
108.16
39.79
-42.88
-134.14
-225.28
-306.02
-367.32
-404.40
-418.32
-415.31
-404.02
-392.24
-384.35
-381.65
-383.47
-389.08
-398.39
-411.63
-427.85
-444.24
-456.31
-460.26
-453.59
-436.05
-409.31
-375.74
-337.28
-294.39
-246.25
-192.06
-131.51
-65.18
5.20
77.05
147.47
213.24
271.14
318.63
354.64
380.33
398.49
411.69
419.99
420.19
406.98
375.81
326.18
263.21
196.30
136.41
92.98
71.02
70.78
88.99
120.72
160.73
204.12
246.45
283.37
312.28
331.64
340.79
339.98
330.05
311.48
283.85
245.40
193.75
127.35
47.18
-41.24
-127.92
-201.70
-254.56
-284.75
-297.57
-302.80
-310.45
-326.97
-353.33
-385.74
-417.88
-444.51
-461.49
-467.14
-462.63
-452.15
-441.76
-437.43
-442.77
-458.01
-480.75
-507.09
-533.16
-554.44
-565.93
-561.32
-534.12
-480.10
-399.58
-297.77
-182.77
-62.33
58.15
175.32
285.97
384.95
465.42
522.11
554.47
567.97
571.71
573.95
578.03
582.34
582.56
573.86
555.65
531.31
505.90
483.27
464.45
447.85
431.96
416.31
401.61
389.06
378.40
367.55
353.33
335.50
312.97
285.84
254.90
220.98
184.25
143.41
96.07
39.51
-28.57
-109.87
-201.88
-298.22
-389.30
-464.04
-513.41
-533.42
-526.67
-501.35
-468.36
-436.90
-412.31
-396.04
-387.07
-384.51
-388.27
-398.69
-415.06
-434.81
-453.45
-465.89
-469.11
-461.29
-442.81
-416.35
-386.06
-356.11
-329.01
-304.15
-277.79
-244.92
-201.85
-148.71
-89.79
-31.81
19.32
61.15
95.48
127.06
160.58
198.47
240.14
283.24
325.43
365.75
404.83
443.06
480.64
516.69
549.47
577.00
597.26
607.69
604.81
584.61
543.82
482.37
404.69
319.61
237.46
168.45
119.42
92.87
87.46
99.77
126.03
162.45
204.72
247.93
286.97
317.36
336.60
346.53
350.04
349.83
346.84
339.30
323.46
295.02
250.44
188.69
110.66
20.89
-74.34
-169.06
-259.23
-342.53
-418.16
-486.31
-547.40
-604.02
-656.80
-703.89
-738.47
-753.67
-744.30
-709.52
-654.31
-588.29
-523.14
-468.56
-429.87
-407.66
-399.47
-401.54
-410.26
-423.35
-437.44
-448.06
-449.98
-438.89
-413.04
-374.06
-325.92
-273.57
-221.01
-170.08
-120.52
-70.57
-18.65
35.41
90.06
142.73
191.06
233.97
272.42
308.94
347.05
390.30
440.95
499.31
562.91
626.06
680.42
717.08
729.20
714.57
676.47
622.35
560.94
499.26
440.88
386.30
334.73
285.76
240.04
198.74
162.35
129.92
99.30
67.99
34.24
-2.44
-41.23
-80.27
-117.07
-148.92
-173.36
-188.79
-194.96
-193.10
-185.61
-175.21
-164.22
-154.16
-145.80
-139.56
-135.74
-134.38
-134.99
-136.31
-136.55
-134.07
-128.15
-119.42
-109.61
-100.73
-94.09
-89.67
-86.11
-81.36
-73.66
-62.36
-48.34
-33.60
-20.38
-10.21
-3.28
1.64
6.57
13.35
22.83
34.53
46.83
57.79
66.00
70.90
72.55
71.15
66.68
58.91
47.85
33.92
17.73
-0.61
-21.91
-47.41
-77.36
-109.30
-137.53
-154.58
-154.51
-136.34
-105.49
-71.84
-45.33
-31.33
-28.47
-30.34
-29.78
-22.95
-10.84
2.40
12.92
19.80
24.92
30.58
36.72
39.76
34.15
15.66
-15.77
-55.32
-95.42
-129.25
-153.74
-170.51
-184.19
-199.38
-217.75
-236.97
-251.67
-256.03
-246.63
-223.98
-192.23
-156.97
-122.58
-90.02
-56.57
-17.28
31.57
89.49
150.79
205.58
243.26
256.42
243.85
211.35
169.96
132.45
109.64
107.08
123.13
149.57
174.28
185.91
178.23
152.77
117.69
84.43
62.91
57.75
67.28
85.22
103.48
114.68
115.45
104.98
85.02
58.38
27.37
-6.75
-43.88
-84.45
-127.71
-171.01
-210.35
-241.45
-261.41
-269.21
-265.43
-251.46
-228.77
-198.86
-163.72
-126.26
-89.89
-57.80
-32.20
-13.70
-1.60
5.45
8.88
9.96
9.70
9.49
11.07
16.32
26.83
43.46
66.20
93.94
124.15
152.58
173.88
183.00
177.65
160.56
139.60
125.04
124.74
139.69
162.24
178.86
176.12
147.18
95.47
33.60
-21.64
-55.98
-62.62
-43.73
-8.08
33.03
69.48
94.59
105.01
100.07
81.14
51.78
17.65
-14.35
-38.00
-49.96
-50.85
-44.51
-35.72
-27.85
-21.89
-17.25
-13.29
-10.51
-10.24
-13.43
-19.78
-28.15
-37.62
-48.45
-62.03
-79.72
-101.62
-126.12
-150.62
-172.76
-191.52
-206.90
-218.90
-226.59
-228.21
-222.21
-208.87
-191.15
-174.02
-162.18
-157.11
-155.32
-149.02
-129.31
-90.47
-33.26
34.25
99.64
150.98
181.59
192.37
190.61
186.61
189.39
203.38
227.18
254.75
277.43
286.62
276.28
245.04
197.26
142.44
92.90
59.89
49.27
58.47
76.79
89.47
84.02
55.87
10.07
-41.47
-85.99
-115.88
-131.46
-139.27
-147.27
-160.56
-180.07
-204.10
-231.05
-261.26
-296.62
-337.98
-382.93
-425.04
-455.95
-468.37
-459.05
-429.81
-386.91
-338.52
-291.87
-251.25
-217.15
-187.35
-158.72
-129.12
-98.54
-68.91
-43.09
-23.40
-10.51
-2.81
3.01
10.91
24.07
43.79
68.95
96.49
122.77
144.81
161.70
175.41
190.29
211.78
243.52
284.93
330.32
370.56
395.84
399.10
378.72
339.33
290.26
242.94
207.70
191.19
194.63
213.56
238.16
255.60
253.59
224.40
168.15
93.67
16.46
-46.49
-83.13
-90.80
-76.28
-51.69
-28.35
-12.11
-2.39
4.81
12.25
19.19
22.84
22.13
19.89
22.35
35.24
59.29
88.90
114.18
125.30
116.78
89.42
49.29
5.79
-30.39
-49.44
-44.79
-15.79
30.29
78.94
111.78
113.48
78.10
12.60
-65.43
-134.30
-176.29
-183.29
-157.43
-108.08
-47.85
10.75
57.10
83.01
84.41
63.29
29.13
-2.74
-17.17
-5.44
30.03
76.29
115.58
133.39
124.18
92.59
50.21
9.52
-20.50
-36.77
-41.47
-39.58
-37.14
-38.98
-47.82
-62.93
-80.09
-92.33
-92.80
-78.75
-54.01
-28.50
-14.07
-18.83
-42.52
-76.58
-107.79
-124.01
-118.56
-91.16
-47.05
5.67
57.74
100.11
125.27
129.15
112.60
81.51
45.14
12.22
-11.84
-25.92
-32.15
-33.93
-34.37
-35.29
-37.07
-38.67
-38.56
-35.29
-28.90
-21.81
-18.44
-23.09
-37.39
-58.37
-77.90
-85.87
-74.53
-42.71
2.68
48.86
81.81
91.79
77.28
45.90
11.84
-9.13
-5.98
23.09
69.65
117.99
151.13
157.08
133.19
86.74
31.63
-17.49
-51.01
-67.08
-71.18
-72.53
-79.71
-96.81
-122.28
-149.17
-167.38
-167.09
-142.11
-92.70
-26.35
44.21
104.48
142.51
152.54
136.37
102.62
64.44
35.82
27.90
45.84
86.44
138.46
185.35
209.98
200.38
154.05
79.91
-4.41
-78.32
-125.66
-140.34
-127.52
-100.67
-75.89
-65.53
-73.82
-96.67
-124.38
-145.60
-150.88
-134.79
-97.30
-43.60
16.91
72.53
113.05
132.93
132.87
119.18
101.13
87.78
86.25
100.56
130.75
172.30
215.97
249.23
259.03
237.31
184.81
112.02
35.94
-27.19
-67.72
-85.09
-85.65
-77.83
-67.16
-54.88
-39.68
-20.36
1.78
22.69
37.29
42.09
37.61
28.45
21.60
23.40
37.68
64.60
100.25
137.93
170.57
193.43
205.98
211.84
216.96
226.64
244.93
272.85
308.12
345.59
379.10
402.62
415.14
415.28
402.57
378.48
347.28
315.45
289.12
268.35
247.91
218.06
168.52
94.74
1.76
-97.05
-185.54
-251.52
-290.74
-306.30
-305.43
-295.96
-283.80
-273.03
-267.57
-271.42
-287.16
-314.04
-345.92
-372.72
-383.58
-370.95
-333.89
-279.47
-220.73
-173.06
-149.04
-153.95
-183.56
-225.03
-260.37
-272.04
-248.84
-190.35
-107.62
-20.30
49.92
87.14
86.91
57.90
17.59
-15.33
-28.38
-19.37
4.31
30.44
47.34
47.56
29.05
-6.34
-54.58
-110.35
-167.05
-216.38
-249.24
-257.94
-238.43
-192.38
-127.65
-57.01
4.92
45.58
58.20
43.35
7.90
-37.66
-81.81
-114.47
-127.63
-115.79
-76.47
-11.05
74.06
166.40
248.78
303.08
316.02
284.39
216.97
132.22
52.40
-4.70
-31.93
-34.16
-24.84
-18.49
-24.18
-42.64
-67.94
-92.22
-110.34
-120.95
-124.31
-119.32
-102.69
-70.95
-24.77
28.40
75.62
102.97
102.09
73.73
27.71
-20.82
-56.30
-66.95
-47.09
1.11
67.42
135.39
186.26
204.87
185.77
135.80
71.72
13.65
-23.10
-33.22
-21.71
0.07
19.96
29.33
24.09
3.36
-31.94
-79.08
-132.44
-182.26
-216.00
-222.31
-196.43
-144.12
-81.16
-27.96
-1.85
-10.42
-49.07
-103.67
-155.97
-189.13
-191.40
-157.87
-91.37
-3.02
89.26
164.76
206.02
205.45
168.60
112.06
56.33
16.86
-1.48
-4.27
-2.60
-7.02
-23.23
-50.91
-85.46
-120.39
-149.33
-166.62
-167.82
-150.20
-113.91
-62.54
-3.07
54.99
101.54
127.91
128.97
104.97
61.82
9.55
-40.73
-80.33
-104.75
-112.57
-103.23
-75.29
-27.48
38.14
113.76
186.17
240.66
266.90
263.08
236.26
198.69
162.84
137.44
125.74
125.78
131.90
136.14
129.58
104.18
55.07
-16.83
-103.81
-192.31
-266.00
-310.56
-318.08
-289.92
-236.56
-174.58
-120.91
-87.62
-78.99
-91.32
-115.44
-140.16
-154.88
-151.03
-123.17
-69.97
5.10
93.25
181.88
257.39
308.51
329.48
321.34
290.88
248.35
204.18
165.94
136.45
113.56
91.96
66.25
33.44
-6.30
-50.64
-96.50
-140.62
-178.82
-205.48
-214.32
-201.26
-167.71
-122.60
-80.10
-54.57
-54.35
-78.29
-116.98
-157.72
-189.40
-205.07
-201.63
-177.55
-131.97
-65.94
15.58
102.65
182.09
241.67
274.81
282.32
270.35
246.23
214.32
174.93
126.52
69.17
6.66
-53.94
-105.03
-141.58
-162.39
-169.18
-164.57
-150.31
-126.70
-93.62
-51.88
-4.54
43.05
83.67
109.51
114.65
97.34
61.19
14.73
-30.77
-64.54
-78.44
-68.06
-32.73
24.33
95.59
168.98
229.77
265.04
268.85
245.60
208.54
173.30
150.19
139.34
131.55
114.16
78.44
23.88
-41.96
-107.28
-160.81
-195.05
-207.61
-200.29
-177.25
-143.43
-102.99
-58.32
-9.86
42.78
99.36
156.99
209.59
248.97
267.60
261.25
230.73
181.73
122.81
63.04
10.71
-28.07
-49.73
-53.31
-39.98
-12.76
24.02
64.82
103.82
135.87
157.23
166.03
162.09
146.79
123.10
95.21
67.36
42.85
23.56
10.47
4.60
7.99
23.01
49.73
83.45
113.72
127.54
114.76
72.83
8.23
-66.75
-140.24
-206.27
-266.54
-327.06
-392.19
-459.94
-521.62
-565.60
-583.25
-572.93
-540.43
-495.83
-448.62
-404.39
-364.01
-325.74
-287.89
-250.73
-216.38
-187.27
-163.81
-143.84
-123.48
-99.07
-69.11
-34.48
1.96
37.02
68.86
97.80
126.19
157.71
196.17
244.07
301.03
362.77
421.31
466.95
491.50
491.35
468.92
431.41
387.69
344.96
307.03
275.08
249.74
232.75
226.78
233.44
251.12
274.24
294.73
305.04
300.84
282.31
253.26
219.24
185.22
154.44
128.17
106.28
87.99
72.51
59.27
47.89
38.01
29.00
19.99
9.95
-2.02
-16.38
-32.94
-50.88
-68.84
-85.26
-98.76
-108.49
-114.39
-117.26
-118.53
-119.86
-122.57
-127.32
-133.95
-141.85
-150.38
-159.28
-168.89
-179.96
-193.36
-209.95
-230.55
-255.80
-285.58
-318.02
-348.94
-372.39
-382.39
-375.61
-353.22
-320.92
-286.85
-258.21
-238.37
-225.99
-216.49
-204.72
-187.56
-164.84
-138.59
-111.39
-85.02
-60.23
-37.43
-17.59
-2.29
6.99
10.19
9.52
8.94
12.60
22.89
39.11
57.63
73.27
81.29
78.92
66.01
44.74
18.62
-8.85
-35.27
-59.47
-80.50
-96.51
-103.84
-97.48
-73.05
-29.18
31.19
101.37
173.29
239.75
295.59
337.24
361.77
366.52
350.33
315.07
266.31
212.29
161.00
117.53
83.09
55.89
32.88
11.41
-10.04
-32.51
-56.83
-84.19
-115.67
-151.77
-192.44
-237.37
-285.07
-332.37
-374.23
-404.49
-418.92
-417.46
-404.64
-387.68
-372.83
-361.62
-350.55
-333.81
-306.88
-270.46
-230.43
-194.95
-168.30
-151.89
-143.76
-140.59
-143.87
-154.71
-173.92
-200.83
-230.76
-257.99
-277.12
-284.18
-277.74
-259.06
-230.67
-196.04
-158.42
-120.21
-83.24
-49.13
-19.20
5.43
24.26
38.27
49.43
60.25
72.89
88.00
104.34
119.13
129.18
132.38
129.03
121.32
112.48
105.15
100.09
95.80
89.28
77.70
60.29
39.28
18.80
3.23
-4.18
-2.16
8.88
27.17
49.33
70.46
84.47
85.36
70.24
42.87
14.52
1.18
16.64
65.67
141.97
231.10
317.43
390.81
449.95
499.91
546.44
590.10
623.22
635.48
619.44
577.21
517.26
451.57
388.38
332.21
283.85
239.52
194.25
146.32
98.05
54.46
21.09
1.42
-3.03
7.41
31.86
70.33
122.90
187.45
257.68
323.24
371.22
389.52
369.61
309.18
213.83
96.83
-23.89
-130.28
-208.63
-253.33
-265.79
-252.78
-222.33
-181.55
-135.92
-91.01
-53.16
-29.17
-24.22
-38.49
-66.10
-96.52
-118.17
-122.88
-109.24
-83.10
-54.68
-34.79
-30.18
-41.06
-62.84
-88.76
-113.94
-136.84
-160.87
-192.21
-235.64
-290.28
-348.15
-396.24
-421.54
-416.42
-380.80
-320.84
-244.76
-159.08
-66.87
29.84
126.40
214.09
281.49
319.63
326.87
309.98
280.91
250.74
224.08
198.59
169.68
136.10
103.38
81.55
78.69
94.14
116.25
127.12
110.89
61.92
-13.37
-100.36
-183.34
-251.29
-299.65
-328.34
-337.93
-327.08
-293.44
-236.67
-161.12
-76.13
6.34
76.14
128.57
164.78
189.55
207.42
220.27
227.35
226.97
218.05
200.30
173.30
135.44
83.73
16.28
-65.52
-156.24
-247.29
-329.91
-396.73
-442.59
-463.93
-458.06
-423.38
-360.66
-274.58
-173.77
-69.00
29.25
113.59
181.21
233.47
273.70
303.75
321.57
320.91
294.00
236.34
151.46
52.50
-40.30
-106.25
-131.94
-116.86
-73.42
-22.22
16.05
27.98
10.72
-28.83
-78.18
-123.76
-154.19
-161.58
-141.92
-95.08
-24.97
60.34
149.87
231.74
295.94
337.45
357.10
360.11
353.35
342.63
328.88
308.52
277.61
235.47
187.23
141.92
108.03
88.31
77.64
64.97
38.93
-6.11
-68.07
-138.02
-204.86
-259.37
-296.53
-315.39
-317.41
-304.24
-276.64
-236.21
-186.85
-135.66
-91.50
-62.06
-50.09
-51.48
-57.05
-56.65
-45.61
-27.05
-10.05
-4.29
-13.45
-32.72
-50.65
-55.18
-39.91
-8.09
28.71
55.10
57.44
29.13
-28.34
-106.38
-192.97
-275.61
-343.49
-387.87
-401.90
-381.13
-323.90
-233.93
-120.96
0.18
113.42
206.04
271.61
311.99
332.84
339.94
335.29
317.20
280.94
223.06
146.74
63.50
-9.20
-54.29
-61.59
-32.74
19.25
74.48
113.85
125.42
106.89
63.65
4.20
-63.69
-134.99
-206.29
-273.11
-327.47
-357.60
-351.54
-302.33
-212.56
-94.75
31.09
143.30
224.01
263.34
261.32
226.85
175.26
123.94
87.48
72.69
76.33
87.51
93.83
88.72
75.54
65.87
72.84
103.29
152.91
207.30
247.89
259.73
237.44
186.53
120.51
55.39
4.53
-25.20
-33.69
-26.31
-11.53
2.27
8.53
3.49
-13.59
-40.50
-72.64
-103.14
-123.92
-127.69
-110.07
-70.91
-15.26
46.97
103.10
140.94
153.51
141.88
115.24
87.09
69.82
69.55
82.92
98.91
103.88
87.60
47.52
-10.92
-76.90
-138.23
-184.40
-208.10
-205.29
-175.50
-121.95
-51.84
24.42
94.96
147.99
174.00
166.87
125.24
52.40
-43.69
-150.97
-254.98
-340.74
-395.98
-413.12
-390.77
-333.79
-252.80
-162.86
-80.52
-19.96
11.06
12.86
-7.68
-41.15
-79.26
-116.09
-146.92
-166.20
-167.34
-144.82
-98.12
-33.92
34.75
93.33
131.36
146.07
141.99
127.43
110.62
96.22
85.00
75.04
63.20
47.12
26.75
5.51
-10.36
-13.19
2.37
35.75
78.95
118.62
142.02
143.01
125.21
99.16
76.02
60.54
48.42
29.79
-3.42
-50.49
-99.90
-133.99
-137.84
-106.74
-48.79
18.84
77.60
115.01
128.44
123.46
108.74
90.76
71.02
46.65
13.76
-28.53
-76.74
-123.69
-161.21
-183.29
-187.39
-174.85
-149.45
-116.52
-81.16
-48.09
-21.30
-3.81
3.26
1.41
-5.31
-11.19
-11.15
-2.11
15.17
36.99
58.36
73.82
78.07
66.33
35.55
-13.67
-75.29
-138.79
-192.39
-227.64
-242.90
-242.56
-232.85
-215.93
-188.00
-142.49
-76.69
3.21
82.73
145.51
181.74
192.71
188.71
181.34
176.03
169.32
152.81
121.06
77.07
32.87
3.33
-2.09
15.83
46.88
77.56
97.92
105.75
105.43
103.79
104.29
105.05
99.37
79.76
43.07
-6.82
-58.25
-95.24
-103.24
-75.06
-14.85
62.37
135.85
186.87
205.76
195.15
167.36
137.31
115.17
101.87
90.08
70.50
39.11
1.21
-30.33
-42.18
-28.42
5.60
45.22
73.58
79.99
63.95
33.69
-0.11
-30.60
-57.65
-85.52
-118.06
-154.16
-186.63
-205.54
-203.82
-181.93
-148.61
-117.24
-99.54
-100.16
-114.39
-130.83
-137.98
-130.31
-110.65
-87.84
-70.85
-63.27
-62.04
-59.89
-50.66
-33.18
-11.50
8.23
21.90
29.78
35.72
44.46
57.88
73.58
85.55
87.02
74.65
52.11
30.21
23.79
45.15
97.22
170.48
244.86
297.45
311.53
283.87
225.49
155.90
94.14
50.76
25.07
7.85
-12.01
-40.93
-76.95
-110.36
-128.52
-121.70
-88.25
-35.39
23.02
71.48
98.33
98.17
71.97
24.68
-37.21
-106.84
-176.10
-234.55
-269.12
-267.03
-220.54
-131.53
-13.73
110.11
213.65
274.93
283.09
241.61
167.21
83.75
13.70
-29.63
-45.40
-43.41
-38.13
-40.79
-54.08
-71.58
-81.72
-73.60
-41.84
11.73
79.80
152.70
222.28
283.94
336.32
379.24
411.37
428.42
424.14
393.24
335.05
255.77
167.12
81.95
9.23
-48.55
-94.79
-135.89
-176.92
-219.10
-259.32
-291.23
-309.04
-309.75
-295.28
-269.90
-238.71
-204.75
-169.50
-133.45
-97.53
-64.29
-37.51
-20.43
-13.23
-12.25
-10.86
-2.57
16.12
44.30
77.57
111.09
142.20
170.83
197.72
221.88
239.17
244.00
232.46
205.12
167.46
127.51
91.77
62.59
38.10
14.00
-13.02
-43.34
-74.76
-104.37
-130.83
-155.46
-181.53
-212.72
-251.37
-297.40
-348.20
-399.28
-445.39
-481.51
-504.01
-511.21
-503.73
-484.39
-457.09
-425.87
-393.76
-362.15
-331.04
-300.00
-269.24
-240.29
-215.46
-196.57
-183.52
-173.65
-162.47
-145.57
-120.54
-88.10
-51.50
-14.88
18.68
47.99
73.48
95.93
115.55
131.69
143.50
151.09
155.99
161.06
169.56
184.16
206.07
234.66
267.39
300.11
327.53
344.12
345.26
328.22
292.98
242.18
180.30
112.15
41.60
-28.88
-97.33
-160.70
-213.87
-250.15
-263.27
-250.19
-212.84
-157.67
-93.21
-26.81
37.22
96.94
150.41
193.51
219.86
223.22
201.02
156.63
99.02
40.06
-9.40
-42.39
-56.65
-53.48
-35.77
-6.61
30.97
73.79
118.71
162.97
205.12
245.16
284.07
322.49
359.57
392.71
417.72
430.85
430.38
417.83
397.31
374.25
352.66
333.50
314.24
290.01
256.10
209.59
150.67
82.96
13.83
-47.02
-88.55
-103.42
-93.75
-70.13
-49.86
-50.26
-82.62
-146.20
-227.07
-303.43
-354.87
-371.14
-355.84
-324.62
-297.52
-290.49
-309.33
-349.01
-397.54
-442.05
-473.77
-489.02
-488.64
-475.52
-452.44
-421.70
-385.58
-347.53
-312.55
-286.27
-272.63
-272.21
-281.23
-292.55
-298.06
-291.10
-268.18
-229.53
-177.87
-117.36
-52.89
10.15
66.67
112.03
143.76
162.77
173.32
181.65
193.47
211.75
236.08
263.78
291.71
317.98
342.14
364.18
383.83
400.17
411.90
418.00
418.24
413.27
404.53
394.51
384.43
374.10
362.18
346.47
324.57
294.40
254.50
204.06
142.12
69.15
-12.49
-97.57
-177.75
-242.87
-284.09
-297.40
-285.30
-256.09
-220.63
-188.12
-163.18
-145.52
-131.92
-119.63
-108.34
-99.83
-96.58
-99.74
-108.33
-119.47
-129.87
-135.90
-134.42
-123.50
-102.77
-74.39
-43.38
-16.71
-1.27
-1.34
-16.91
-43.64
-74.19
-100.60
-116.90
-120.56
-112.84
-97.96
-81.33
-67.83
-60.32
-58.93
-60.96
-62.28
-58.53
-46.57
-24.98
6.28
45.99
91.73
139.99
186.42
226.65
257.73
278.88
291.43
298.45
303.03
306.85
309.66
309.62
304.46
293.97
278.52
259.56
239.28
219.32
199.97
180.11
157.44
129.15
92.61
45.97
-10.39
-72.63
-133.33
-183.40
-215.02
-224.92
-215.79
-195.25
-172.97
-156.65
-149.54
-150.68
-156.95
-165.45
-175.30
-187.36
-202.76
-221.81
-243.19
-264.39
-282.98
-297.51
-307.65
-314.05
-318.16
-320.14
-319.12
-313.27
-300.40
-278.89
-248.43
-210.39
-167.57
-123.46
-80.93
-41.83
-6.41
26.44
58.42
91.16
126.13
164.75
208.35
257.45
310.35
361.57
403.18
426.99
427.88
406.42
369.10
325.73
285.74
254.76
233.72
220.16
210.68
202.69
195.31
188.77
183.35
179.17
176.01
173.77
172.37
172.37
172.79
171.28
164.29
147.53
117.29
72.25
15.17
-47.13
-104.19
-146.27
-168.06
-170.75
-161.23
-148.73
-140.91
-141.11
-148.25
-158.88
-170.07
-180.88
-192.23
-205.56
-221.30
-238.19
-253.74
-265.40
-271.81
-272.44
-267.33
-256.19
-237.83
-210.50
-173.09
-126.58
-74.63
-22.91
22.50
56.75
77.13
82.97
75.04
55.08
25.92
-8.05
-40.96
-66.47
-79.35
-77.10
-60.60
-33.12
1.14
38.47
76.51
113.63
148.31
178.88
203.79
221.83
232.78
237.55
237.67
235.27
232.25
229.73
227.92
226.11
222.98
217.13
208.39
196.64
182.36
166.46
149.46
131.47
111.84
89.35
62.66
30.67
-7.26
-50.80
-98.38
-147.15
-192.74
-229.84
-253.36
-260.16
-250.46
-228.29
-200.29
-173.74
-154.44
-145.21
-146.05
-154.97
-169.35
-186.73
-205.04
-222.37
-236.82
-247.17
-252.54
-253.01
-248.89
-240.22
-226.71
-207.67
-182.59
-151.82
-116.98
-80.54
-45.37
-13.63
13.84
37.62
59.67
82.64
109.40
142.01
180.51
221.81
259.62
286.05
294.01
281.29
251.87
214.99
181.27
158.45
148.78
149.35
154.84
160.80
165.77
170.64
177.06
185.46
194.25
200.93
203.57
201.81
196.98
192.12
188.54
185.63
180.59
169.28
147.79
113.73
66.68
7.92
-59.15
-129.98
-198.66
-258.12
-301.42
-323.53
-323.28
-304.41
-274.10
-240.80
-210.66
-186.26
-167.26
-152.21
-140.47
-132.79
-130.70
-134.76
-143.81
-155.23
-166.09
-174.65
-180.52
-184.26
-186.51
-186.81
-183.22
-173.01
-153.80
-125.02
-88.62
-48.82
-10.65
21.51
45.31
61.17
71.56
80.01
90.17
104.97
126.10
153.28
183.58
211.41
229.78
232.21
216.21
185.09
147.13
112.48
89.18
80.44
84.41
96.18
110.45
123.70
134.50
142.61
148.06
150.71
150.64
148.69
146.50
145.67
147.34
151.53
157.13
162.97
167.10
167.61
163.18
152.92
136.17
112.55
81.76
43.41
-3.03
-57.06
-116.50
-176.54
-229.85
-268.12
-284.82
-278.12
-252.14
-215.65
-178.94
-150.59
-134.47
-130.37
-135.65
-147.33
-163.41
-182.81
-204.21
-225.49
-243.98
-257.27
-264.28
-264.83
-259.19
-247.52
-229.30
-203.45
-169.30
-127.51
-80.52
-32.27
12.72
50.68
79.52
99.27
111.99
121.07
130.56
144.04
163.16
186.33
208.46
222.34
221.12
202.29
169.34
131.06
98.07
78.50
75.00
84.67
101.25
118.41
132.21
141.57
147.34
150.91
153.20
154.54
155.11
155.23
155.32
156.14
158.37
162.52
168.97
177.28
185.38
190.24
188.31
176.64
153.72
119.76
76.29
25.06
-31.51
-90.20
-145.92
-191.89
-221.74
-232.80
-228.57
-218.37
-212.34
-216.55
-229.91
-245.07
-253.14
-249.29
-235.46
-218.96
-207.75
-205.84
-211.80
-220.79
-228.06
-231.65
-232.74
-232.98
-232.47
-228.72
-217.71
-196.18
-163.79
-123.71
-81.52
-43.29
-13.07
8.27
23.10
35.91
51.68
74.52
106.60
147.22
192.24
234.57
265.41
277.78
269.51
244.59
212.05
182.44
163.61
157.81
161.94
169.98
176.42
178.65
177.18
174.39
172.86
174.20
178.30
184.17
190.37
195.40
198.68
200.14
199.71
197.33
192.57
183.99
169.09
144.90
108.76
59.24
-2.77
-74.17
-149.60
-221.56
-281.28
-320.46
-333.25
-319.22
-283.78
-238.39
-197.54
-173.76
-171.90
-187.54
-209.08
-222.69
-219.69
-199.63
-170.06
-142.10
-124.14
-118.71
-123.09
-132.36
-142.28
-151.22
-158.76
-163.65
-162.55
-150.42
-122.83
-78.05
-18.56
49.13
115.19
168.69
200.18
204.20
181.05
137.01
82.73
30.04
-11.49
-36.91
-45.81
-40.81
-25.30
-1.53
29.39
66.31
106.71
146.37
180.20
204.13
216.61
219.03
215.30
210.13
207.26
208.37
213.02
219.13
224.05
226.08
224.38
219.70
212.98
204.51
193.67
178.75
157.52
128.15
89.82
42.77
-11.92
-71.98
-134.20
-193.81
-244.33
-278.73
-291.78
-282.58
-255.68
-220.21
-185.93
-160.41
-146.99
-144.78
-150.40
-160.44
-172.77
-186.84
-202.62
-219.49
-236.17
-250.83
-261.83
-267.42
-266.06
-256.67
-238.64
-212.01
-177.80
-137.86
-94.79
-51.37
-10.01
27.35
59.65
87.03
110.97
133.72
156.89
179.89
199.10
208.87
203.92
182.52
147.93
108.63
75.22
56.11
54.61
68.48
92.10
119.24
145.31
167.77
185.43
197.58
203.63
203.68
198.99
192.01
185.42
181.59
181.47
184.36
188.56
191.99
193.66
192.42
187.42
177.99
163.34
142.32
113.49
75.39
27.13
-30.76
-94.65
-158.07
-212.65
-250.41
-266.51
-261.39
-240.80
-213.66
-189.02
-172.36
-164.99
-164.84
-168.62
-173.79
-179.57
-186.26
-194.38
-203.67
-212.73
-220.04
-223.85
-222.73
-215.82
-202.81
-183.82
-159.49
-130.88
-99.42
-66.76
-34.51
-4.10
23.17
46.07
63.44
74.10
77.29
73.03
62.51
48.01
32.60
19.71
12.92
15.68
30.52
57.98
95.42
136.69
173.04
196.38
202.55
193.36
175.75
158.44
148.00
146.30
150.80
157.04
161.78
164.61
167.48
172.69
180.92
190.77
199.55
204.91
206.07
204.73
202.81
201.19
199.12
193.89
181.57
158.54
122.65
73.86
13.68
-54.31
-125.30
-193.30
-251.28
-292.44
-311.96
-309.34
-288.82
-258.34
-226.71
-200.77
-183.63
-174.76
-172.09
-173.90
-179.57
-188.80
-200.75
-212.79
-221.35
-223.60
-218.26
-206.35
-190.45
-173.59
-157.58
-142.43
-126.59
-108.09
-85.97
-61.00
-35.79
-13.60
2.89
12.91
17.92
20.97
25.86
35.95
53.79
80.57
115.48
155.17
193.49
222.38
235.03
228.68
206.24
175.59
146.48
126.54
118.84
121.63
130.26
140.07
148.16
153.55
156.38
156.96
155.28
151.73
147.56
144.50
144.49
148.81
157.24
168.06
179.42
188.39
192.32
189.35
178.36
158.86
130.76
94.01
48.18
-6.30
-68.41
-135.16
-200.88
-257.32
-295.58
-309.31
-297.71
-266.98
-227.68
-191.53
-166.88
-156.64
-158.51
-167.40
-178.47
-188.94
-197.87
-205.12
-210.52
-212.46
-208.69
-197.44
-178.41
-153.15
-124.72
-96.57
-71.29
-50.17
-32.76
-17.46
-2.39
13.83
32.01
52.55
75.69
100.83
125.64
145.57
154.77
148.33
124.88
88.04
45.67
7.70
-17.62
-26.45
-19.71
-1.22
24.68
54.70
86.55
118.08
146.49
168.61
182.24
187.26
186.19
183.27
182.84
187.68
197.93
211.25
223.84
232.81
235.96
232.76
223.81
210.06
191.56
167.22
135.17
93.67
41.71
-19.76
-87.99
-158.58
-225.28
-280.75
-317.80
-331.84
-322.63
-294.65
-255.84
-215.06
-179.59
-152.58
-133.62
-120.19
-109.62
-100.06
-91.06
-83.15
-77.28
-74.51
-75.95
-82.74
-95.50
-114.10
-136.96
-160.85
-181.32
-193.18
-191.43
-172.48
-135.54
-83.81
-24.64
31.52
73.98
95.03
93.10
73.47
45.86
20.58
4.81
0.81
6.61
18.42
33.09
49.54
68.26
89.79
113.54
137.61
159.47
177.06
189.44
196.99
201.06
203.21
204.60
205.85
207.05
208.09
208.49
207.97
206.62
204.70
202.89
201.19
198.65
193.58
183.67
166.54
140.46
104.68
59.37
5.22
-55.70
-120.19
-183.25
-238.09
-277.45
-295.98
-292.49
-271.22
-240.68
-209.47
-183.89
-166.26
-155.41
-148.74
-144.34
-141.80
-141.78
-144.76
-150.13
-156.57
-162.66
-167.88
-172.88
-178.22
-183.63
-187.18
-185.55
-175.07
-153.44
-120.81
-80.17
-36.49
4.75
39.34
65.38
83.30
95.40
104.61
114.26
126.81
142.76
159.68
172.43
174.58
161.08
131.14
89.41
44.95
8.57
-11.42
-12.18
3.71
30.46
61.99
94.03
124.34
151.90
175.68
194.33
206.62
212.65
214.03
213.36
213.51
216.28
221.96
229.09
235.68
238.33
233.90
220.66
197.97
166.22
126.06
78.01
22.06
-40.51
-107.10
-173.29
-233.50
-282.35
-316.38
-334.81
-338.58
-329.80
-310.58
-282.94
-249.75
-213.20
-175.91
-140.49
-108.88
-81.80
-59.06
-41.21
-29.93
-27.64
-36.23
-56.07
-85.00
-118.52
-150.30
-173.66
-183.61
-177.92
-157.52
-125.56
-86.28
-43.57
0.01
43.14
84.64
123.13
157.25
185.56
207.21
221.25
226.24
219.99
200.03
165.08
116.44
58.72
-0.88
-54.70
-97.24
-126.65
-144.54
-153.99
-157.10
-153.79
-142.13
-120.34
-88.46
-49.35
-7.90
31.14
65.48
96.24
126.72
159.33
192.31
219.98
234.01
227.87
201.21
161.52
121.75
95.16
89.53
104.35
131.59
159.81
179.93
188.54
188.04
184.18
182.59
186.06
193.21
199.30
198.06
184.20
155.15
111.34
55.83
-6.83
-71.93
-136.04
-196.96
-252.66
-299.47
-332.06
-345.51
-338.84
-317.15
-290.98
-271.86
-266.37
-272.48
-280.22
-277.24
-255.56
-216.08
-168.15
-124.25
-93.31
-76.43
-67.69
-59.01
-45.48
-28.06
-12.22
-4.06
-6.17
-16.01
-27.44
-34.72
-36.30
-36.11
-41.59
-59.60
-92.71
-137.61
-186.29
-229.04
-257.70
-267.51
-257.30
-228.44
-183.65
-126.25
-59.92
11.38
83.35
152.01
214.17
267.82
312.48
349.46
381.82
413.39
446.85
481.52
512.25
530.36
526.90
496.51
440.17
365.34
283.17
204.36
135.68
78.87
31.68
-9.82
-49.16
-88.46
-128.24
-167.63
-204.49
-235.11
-254.53
-257.64
-240.99
-204.55
-152.78
-93.99
-38.14
5.90
32.78
41.61
35.47
19.86
1.10
-14.92
-23.47
-21.75
-9.55
10.19
31.98
49.65
58.89
58.94
52.87
46.10
43.92
49.26
61.89
78.87
96.17
110.04
117.82
118.15
111.01
97.72
80.91
64.12
51.17
45.29
48.36
60.65
81.04
107.53
137.93
169.97
201.53
230.14
252.83
265.95
265.91
249.44
213.69
157.11
80.49
-11.76
-111.16
-206.16
-284.86
-338.54
-364.35
-365.98
-351.41
-329.25
-305.82
-284.00
-264.07
-245.64
-229.31
-215.83
-206.98
-203.92
-206.50
-213.84
-225.40
-241.50
-263.21
-292.04
-328.63
-372.02
-420.29
-468.92
-512.40
-545.97
-566.79
-574.45
-570.66
-558.24
-539.98
-517.43
-490.44
-457.36
-416.97
-369.25
-315.84
-259.65
-203.75
-150.38
-100.02
-51.24
-1.67
51.19
109.31
173.99
245.35
321.39
396.86
463.10
510.01
529.59
519.82
486.60
441.88
398.94
366.96
348.07
338.21
330.69
320.15
304.38
283.70
259.15
231.28
200.43
168.12
137.79
113.85
99.64
95.74
99.52
106.50
112.43
114.72
113.06
108.57
102.77
96.73
90.90
85.32
80.07
75.42
71.91
70.28
71.53
76.86
87.54
104.46
127.40
154.67
182.96
208.09
226.21
234.94
234.08
225.37
211.48
194.83
176.76
157.43
136.40
113.53
89.55
66.03
44.95
27.94
15.80
8.33
4.51
2.93
2.33
1.87
1.29
0.79
0.80
1.76
4.03
7.79
13.09
19.91
28.12
37.42
47.26
56.79
65.07
71.20
74.80
76.01
75.58
74.48
73.53
73.03
72.71
71.85
69.67
65.58
59.39
51.28
41.71
31.26
20.41
9.31
-2.43
-15.84
-32.24
-52.79
-77.79
-106.29
-136.46
-166.17
-194.10
-220.05
-244.60
-268.20
-290.38
-309.79
-325.03
-335.70
-342.64
-347.19
-349.67
-348.60
-341.08
-324.49
-298.19
-264.17
-226.06
-187.19
-149.25
-112.25
-75.79
-40.58
-8.95
15.91
31.66
37.99
36.81
31.27
24.59
19.16
16.37
17.19
22.45
33.16
50.50
75.69
109.57
151.82
200.12
249.84
294.68
328.28
346.39
348.14
336.19
315.27
289.88
262.65
233.78
202.14
166.76
128.10
87.86
48.02
9.83
-26.16
-59.10
-86.73
-105.33
-111.07
-102.11
-80.55
-52.51
-26.52
-10.67
-9.96
-25.01
-52.31
-85.83
-119.06
-146.19
-162.66
-165.62
-154.11
-128.92
-92.27
-47.16
3.28
56.12
108.63
158.77
204.65
244.74
277.81
303.27
321.19
332.05
338.47
341.50
341.00
335.56
322.83
300.56
268.02
227.27
182.76
140.24
104.56
78.68
62.31
51.96
42.10
26.67
0.72
-39.30
-93.92
-160.58
-232.23
-298.34
-347.49
-371.55
-372.05
-357.25
-339.79
-331.07
-336.54
-353.13
-370.92
-378.76
-370.92
-349.38
-321.71
-297.11
-281.71
-278.41
-284.96
-297.46
-312.77
-329.22
-345.49
-358.23
-363.57
-358.11
-340.36
-311.40
-275.09
-236.86
-201.79
-172.85
-149.37
-127.43
-101.39
-66.40
-20.96
31.21
81.90
121.73
144.23
149.14
142.88
135.87
138.28
155.91
188.28
229.81
273.02
311.89
343.51
367.76
385.76
398.70
407.33
411.88
412.39
409.14
403.23
396.17
391.15
389.59
390.86
392.62
391.08
381.98
361.68
328.16
280.74
218.41
142.24
55.03
-37.84
-127.89
-204.46
-257.93
-283.60
-284.24
-269.34
-251.17
-239.61
-238.52
-245.67
-255.68
-264.31
-270.89
-277.72
-287.41
-300.53
-315.11
-328.51
-338.06
-342.38
-341.28
-334.75
-321.53
-298.98
-263.73
-213.52
-149.06
-75.77
-3.66
54.90
89.13
94.04
72.28
33.53
-9.43
-45.29
-67.55
-74.95
-69.88
-55.47
-33.45
-4.23
32.35
75.20
121.30
166.37
206.25
238.29
262.19
279.82
293.75
306.31
318.28
328.89
336.63
339.99
338.38
332.68
326.11
320.36
315.78
310.72
302.00
286.08
259.87
221.35
169.78
105.79
31.05
-48.94
-125.97
-190.65
-234.92
-255.21
-254.02
-238.92
-219.57
-204.04
-195.98
-194.85
-197.71
-201.70
-205.78
-210.86
-218.70
-230.56
-246.20
-263.68
-280.50
-294.85
-304.71
-308.68
-305.81
-295.65
-278.02
-253.05
-221.14
-183.33
-141.39
-97.38
-53.24
-9.93
32.60
74.53
114.73
149.84
174.38
183.01
173.57
148.65
116.21
86.75
69.57
69.30
85.19
112.36
144.71
177.24
206.89
232.19
252.25
266.72
275.70
280.26
282.07
282.75
283.39
284.01
284.51
283.04
277.66
266.89
250.22
227.66
199.61
166.68
129.26
87.16
39.40
-14.89
-75.33
-138.41
-197.70
-245.21
-273.95
-281.07
-269.66
-247.72
-224.79
-208.18
-200.47
-199.69
-201.43
-201.38
-197.64
-191.02
-183.91
-179.06
-178.61
-183.63
-194.15
-209.26
-227.39
-245.75
-260.75
-268.69
-266.61
-252.64
-226.53
-189.55
-144.21
-93.77
-41.65
9.36
57.80
103.20
145.07
181.73
209.38
222.90
218.02
194.13
155.50
111.47
73.30
50.08
45.64
58.04
81.98
111.40
141.60
169.65
193.77
212.45
224.34
228.86
226.81
220.77
213.98
209.18
207.49
207.97
208.66
207.59
204.63
199.91
194.34
188.71
182.87
175.28
163.31
143.86
114.13
72.47
18.89
-42.77
-105.58
-160.71
-199.91
-218.28
-216.16
-199.04
-175.36
-153.33
-138.09
-131.04
-130.72
-134.95
-142.49
-153.34
-167.80
-185.29
-204.27
-222.75
-239.61
-255.29
-271.41
-289.67
-310.36
-331.86
-350.27
-360.84
-359.75
-345.48
-319.30
-284.38
-244.51
-202.44
-159.12
-113.88
-65.18
-11.53
47.92
112.82
181.02
247.81
306.25
348.66
369.22
366.61
345.00
312.97
280.05
253.18
234.88
223.69
216.44
210.75
206.28
203.73
203.60
205.42
207.06
206.73
204.39
201.96
202.08
207.21
216.75
227.30
233.58
229.79
211.35
175.90
123.90
58.44
-13.40
-82.52
-139.83
-178.66
-197.28
-199.14
-191.16
-181.03
-173.70
-170.27
-169.21
-168.22
-166.33
-164.61
-165.15
-169.41
-177.49
-187.97
-199.32
-211.22
-224.57
-240.73
-260.40
-282.37
-302.92
-316.91
-319.32
-307.13
-280.59
-242.85
-198.87
-153.74
-110.99
-71.91
-36.08
-1.67
33.63
71.89
114.28
159.99
205.57
244.67
270.12
276.65
263.71
236.40
203.80
175.62
158.29
153.04
156.46
163.06
168.34
170.37
169.56
167.38
165.08
162.96
160.90
159.15
158.23
159.20
163.32
171.24
182.54
195.83
208.13
215.77
215.23
203.94
180.55
144.76
96.93
37.92
-29.00
-98.15
-161.46
-210.00
-236.82
-239.84
-223.04
-195.43
-166.90
-144.89
-132.58
-129.11
-131.82
-138.57
-149.22
-165.04
-186.80
-213.26
-241.08
-265.87
-283.68
-292.55
-292.26
-284.17
-269.82
-250.07
-224.74
-193.02
-154.47
-109.67
-60.41
-9.15
41.22
87.52
125.88
151.77
160.85
150.94
123.86
85.74
46.24
15.28
-0.26
1.57
18.10
44.31
75.38
107.96
139.78
168.77
192.41
208.20
214.89
213.40
206.61
198.66
193.34
192.80
196.33
201.11
203.58
201.44
194.73
185.13
175.07
166.60
160.03
153.71
144.67
129.65
106.04
72.31
28.42
-23.57
-78.61
-129.54
-168.58
-189.82
-191.56
-177.12
-153.78
-130.01
-112.26
-103.36
-102.94
-108.65
-118.37
-131.12
-146.59
-164.44
-183.67
-202.79
-220.78
-237.71
-254.42
-271.57
-289.06
-304.74
-315.13
-316.66
-306.99
-286.03
-255.74
-219.46
-180.52
-141.17
-102.06
-62.47
-20.77
24.96
75.89
131.37
187.86
238.60
275.54
292.37
287.57
265.73
236.15
208.99
191.34
184.83
186.17
190.20
192.97
193.53
193.42
194.72
198.07
202.46
206.07
207.34
206.39
204.85
205.29
209.12
215.51
221.41
222.30
213.23
190.12
150.86
96.03
28.96
-43.48
-112.53
-169.61
-208.50
-227.28
-228.52
-217.74
-201.61
-186.24
-175.51
-171.02
-172.17
-176.70
-181.35
-183.02
-179.74
-171.72
-160.95
-150.47
-143.25
-141.01
-144.00
-151.15
-160.69
-170.36
-177.43
-178.57
-170.44
-150.53
-118.00
-74.32
-23.58
27.23
69.29
93.90
95.51
74.30
36.57
-6.90
-44.54
-67.75
-73.31
-63.04
-41.41
-12.73
20.54
57.29
96.36
135.20
169.94
196.64
213.03
219.76
219.94
218.16
218.08
221.40
227.59
234.40
239.34
240.42
237.70
232.32
225.72
218.56
209.90
197.40
178.29
150.12
111.51
62.40
3.85
-60.70
-125.80
-184.35
-228.93
-253.78
-257.63
-244.48
-222.15
-199.17
-181.72
-171.21
-165.10
-159.10
-149.86
-136.46
-120.56
-105.25
-93.64
-87.92
-89.33
-98.34
-114.62
-136.75
-162.63
-189.10
-212.44
-228.91
-235.26
-229.38
-210.62
-179.75
-138.79
-90.53
-37.73
17.40
72.60
125.00
170.05
201.63
213.56
202.26
169.15
121.35
69.74
26.14
-0.66
-7.43
3.81
27.99
59.50
93.68
127.15
157.20
181.57
198.79
208.59
212.33
212.56
212.10
212.89
215.18
217.52
217.81
215.18
208.93
199.26
186.96
172.62
156.14
136.60
112.38
81.68
42.98
-4.34
-58.71
-115.39
-167.27
-206.67
-227.79
-229.57
-216.12
-195.12
-174.81
-160.75
-154.42
-154.14
-156.56
-158.74
-159.61
-159.63
-159.77
-160.79
-162.90
-166.38
-171.95
-180.23
-191.29
-203.86
-215.10
-221.36
-219.36
-207.15
-184.73
-153.96
-117.56
-78.39
-38.83
-0.34
36.70
72.50
107.74
142.44
174.60
199.98
212.78
207.98
184.15
144.81
98.94
58.14
32.28
25.96
37.79
62.05
91.72
121.09
146.81
167.68
183.47
194.21
199.97
201.44
200.24
198.20
196.97
197.18
198.72
200.80
203.01
203.87
201.97
196.07
185.04
167.99
144.07
112.45
72.23
22.74
-34.40
-94.76
-151.06
-194.77
-218.93
-221.09
-204.56
-177.40
-149.59
-128.78
-118.51
-118.27
-125.34
-136.75
-150.66
-166.41
-183.73
-202.10
-220.57
-238.53
-255.95
-273.06
-289.69
-305.06
-316.82
-321.88
-317.50
-302.37
-277.14
-244.13
-206.53
-167.24
-128.06
-89.27
-49.74
-7.50
39.54
92.21
148.77
204.28
250.98
281.06
290.00
278.99
254.91
227.80
206.62
195.91
194.84
198.92
203.27
205.16
204.73
203.82
203.93
205.04
205.55
203.79
198.89
191.56
183.63
177.52
174.97
175.64
177.24
176.37
169.73
155.02
131.27
98.36
56.92
8.58
-43.44
-93.22
-133.80
-159.50
-168.29
-162.88
-150.17
-138.07
-132.39
-134.74
-142.82
-152.48
-160.22
-164.82
-167.19
-169.29
-172.82
-178.79
-187.31
-197.51
-208.45
-219.06
-228.52
-235.57
-238.76
-236.43
-227.08
-209.59
-183.58
-149.94
-110.53
-67.69
-23.37
21.03
64.10
103.22
133.78
150.33
148.40
127.32
91.74
50.79
15.53
-5.15
-7.29
7.74
34.98
68.70
104.27
138.53
169.05
193.54
209.85
217.07
216.37
210.96
204.70
201.03
201.54
205.64
211.36
215.66
216.48
213.65
207.93
200.25
190.86
178.75
161.84
137.63
103.92
59.69
5.39
-55.50
-117.06
-171.58
-211.44
-231.41
-231.11
-215.37
-192.19
-169.94
-153.57
-143.95
-138.97
-135.80
-133.14
-131.71
-133.15
-138.51
-147.37
-157.87
-168.19
-177.85
-187.82
-199.74
-214.38
-230.23
-243.50
-249.07
-241.98
-219.11
-179.85
-126.29
-63.27
1.80
59.93
102.34
122.77
120.35
100.17
71.64
45.74
30.94
30.74
43.83
66.19
93.69
123.77
154.79
185.03
211.97
232.53
244.37
247.49
244.48
239.49
237.25
240.23
248.05
257.78
265.54
267.43
261.18
246.58
224.90
198.08
167.28
132.55
93.21
48.41
-2.29
-58.43
-118.03
-177.62
-232.01
-274.97
-300.63
-305.58
-291.17
-263.69
-232.52
-206.45
-190.58
-184.23
-182.66
-180.12
-173.01
-160.89
-146.18
-132.31
-121.73
-115.02
-111.42
-109.90
-109.93
-111.69
-115.77
-121.98
-128.84
-133.52
-132.48
-122.68
-102.62
-72.69
-34.74
8.56
54.07
97.89
134.60
158.35
164.24
150.68
120.78
82.16
44.56
16.42
2.75
3.82
16.59
36.94
61.74
89.10
117.58
145.13
168.97
186.62
196.88
201.02
202.33
204.75
211.29
222.69
236.93
249.92
258.31
258.53
249.13
230.68
205.37
175.97
144.58
112.13
78.81
44.78
9.89
-25.62
-61.27
-95.93
-127.15
-150.62
-161.95
-158.49
-141.32
-116.06
-90.91
-73.91
-69.81
-78.54
-96.23
-117.78
-139.12
-158.90
-178.12
-198.22
-219.70
-242.08
-264.01
-284.27
-302.11
-317.46
-330.67
-342.42
-351.73
-356.50
-353.89
-341.25
-317.01
-281.36
-236.40
-185.79
-133.89
-84.31
-39.46
0.02
34.93
66.94
98.01
130.19
165.59
206.09
252.41
302.01
349.01
385.06
402.28
396.58
370.20
331.14
290.10
256.32
234.31
223.44
219.60
218.27
216.71
214.58
212.83
212.22
212.51
212.51
211.56
208.10
200.63
187.82
168.15
139.72
100.83
51.41
-5.56
-63.89
-114.97
-151.31
-169.90
-173.53
-169.42
-166.15
-169.86
-181.92
-199.05
-215.87
-227.75
-232.97
-231.65
-224.52
-212.07
-194.30
-171.55
-145.60
-120.18
-100.26
-90.50
-93.36
-107.98
-130.28
-153.99
-172.29
-179.31
-171.08
-146.12
-106.05
-55.81
-3.35
41.83
71.52
81.70
73.66
53.74
30.52
11.37
-0.11
-3.81
-1.68
4.57
14.62
28.86
47.58
69.69
92.46
112.62
128.01
138.41
145.63
152.79
162.63
176.74
194.71
214.28
232.65
247.59
258.00
264.01
267.42
268.83
267.39
260.84
246.21
220.89
183.53
134.39
75.11
8.61
-61.28
-128.46
-185.47
-225.02
-242.28
-237.13
-214.76
-184.64
-156.97
-139.36
-134.26
-139.35
-149.70
-160.49
-168.74
-173.39
-174.45
-172.50
-168.30
-162.86
-157.75
-155.05
-157.06
-165.29
-179.69
-198.84
-220.51
-241.90
-260.25
-273.20
-278.81
-275.61
-262.70
-239.85
-207.93
-168.83
-125.07
-79.72
-35.25
6.75
45.86
82.49
117.82
153.47
191.23
232.05
274.81
315.00
346.21
362.00
358.65
337.28
303.83
266.88
234.30
210.38
195.39
187.04
182.65
180.63
180.84
182.89
185.83
187.98
187.45
183.59
177.42
171.78
168.50
167.81
167.72
164.65
154.29
132.72
97.77
50.00
-6.67
-65.49
-117.42
-154.49
-172.62
-173.13
-162.69
-150.08
-142.63
-143.46
-151.10
-161.21
-169.94
-175.76
-179.98
-185.53
-194.46
-207.19
-222.27
-237.12
-249.39
-257.96
-263.15
-265.72
-265.92
-262.90
-254.78
-239.28
-214.79
-181.19
-139.87
-92.86
-42.29
9.38
58.84
101.32
130.88
142.93
136.25
114.39
85.73
60.62
47.44
49.90
66.53
92.45
121.96
150.64
175.89
196.55
212.07
222.26
227.67
229.67
230.30
231.56
234.94
239.97
244.85
247.35
245.11
236.15
219.30
194.18
161.24
121.40
75.73
25.46
-28.25
-83.95
-139.09
-189.26
-228.39
-249.67
-249.35
-229.00
-195.81
-160.69
-134.31
-123.29
-127.91
-143.37
-161.86
-176.34
-182.20
-177.48
-161.90
-135.81
-100.22
-57.16
-10.59
33.37
67.51
85.38
83.27
61.21
22.91
-25.48
-77.09
-126.28
-169.32
-204.25
-229.94
-245.05
-247.61
-235.27
-206.34
-160.60
-99.77
-27.44
50.87
127.67
194.00
240.60
260.23
250.24
214.38
161.76
105.05
56.63
24.55
11.03
13.56
27.68
49.21
75.53
105.00
135.53
164.13
187.38
202.75
210.01
211.54
211.33
213.09
219.54
229.53
239.19
243.27
236.80
216.19
179.82
128.33
64.24
-6.25
-74.87
-132.84
-173.55
-194.94
-200.39
-197.26
-193.79
-195.52
-203.11
-213.18
-220.70
-221.02
-212.01
-193.98
-168.60
-137.51
-101.67
-62.04
-20.94
17.75
48.69
65.99
65.08
44.13
4.69
-48.46
-108.37
-167.84
-219.92
-258.64
-279.17
-278.39
-255.85
-214.79
-162.10
-106.38
-55.96
-15.41
15.70
41.38
66.31
93.29
121.75
148.69
170.75
186.05
194.89
198.57
198.06
193.37
184.34
171.17
155.73
141.69
133.03
133.12
142.68
159.50
179.03
195.95
206.28
208.09
201.68
188.68
171.38
151.25
128.52
102.67
73.01
39.13
1.19
-39.53
-80.90
-119.18
-148.99
-165.08
-164.48
-148.38
-122.39
-95.13
-74.79
-66.30
-69.85
-82.02
-98.38
-115.67
-133.27
-151.90
-172.71
-195.22
-217.47
-236.98
-252.38
-263.70
-272.14
-279.61
-286.67
-292.08
-292.73
-284.89
-265.67
-234.42
-193.19
-146.34
-98.94
-55.14
-17.00
15.93
45.72
74.98
106.08
140.65
179.15
220.41
261.12
295.29
316.17
318.58
301.32
268.75
229.58
193.42
167.11
152.61
147.39
147.04
148.09
149.48
152.04
156.83
163.16
168.88
171.51
169.95
164.98
159.18
155.56
155.44
157.84
159.59
156.44
144.58
121.68
87.22
42.35
-10.08
-65.69
-117.97
-159.89
-185.87
-193.78
-185.96
-168.72
-150.07
-136.60
-131.45
-134.08
-141.56
-150.73
-159.66
-167.71
-174.90
-181.54
-187.76
-193.92
-200.40
-207.47
-215.20
-222.66
-227.82
-228.10
-221.21
-205.90
-182.33
-151.94
-116.92
-79.71
-42.37
-6.12
28.75
62.91
97.09
130.76
161.07
182.92
190.16
178.49
148.20
104.99
59.22
22.08
1.33
-0.96
12.22
35.19
62.43
90.40
117.38
142.27
163.40
178.48
185.48
184.11
176.29
165.54
156.10
151.14
151.95
157.67
166.10
174.40
180.42
183.72
184.52
183.19
179.73
172.88
160.35
139.50
108.17
65.24
11.85
-49.31
-113.87
-175.99
-228.96
-266.48
-284.27
-282.31
-264.34
-236.78
-206.74
-179.50
-157.26
-139.41
-124.14
-110.23
-97.93
-88.66
-83.82
-84.05
-88.80
-96.73
-106.70
-118.38
-132.23
-149.04
-168.32
-187.85
-203.82
-211.60
-207.16
-188.12
-154.16
-107.09
-50.76
8.92
64.15
106.15
127.76
126.13
104.14
70.03
34.58
7.75
-4.58
-1.68
13.26
35.90
62.84
92.16
122.75
153.15
181.03
203.50
218.35
225.02
224.74
220.10
213.90
208.57
204.92
202.23
198.97
193.87
186.59
178.23
170.43
164.77
161.97
161.17
159.92
154.93
142.66
120.28
86.06
39.24
-18.66
-83.73
-149.51
-207.96
-251.45
-275.53
-280.55
-271.21
-254.35
-237.54
-224.79
-216.60
-210.43
-201.96
-186.88
-162.67
-129.54
-90.18
-50.79
-18.57
0.58
3.82
-8.12
-31.85
-63.29
-98.75
-135.12
-169.45
-198.20
-217.57
-224.29
-216.48
-194.03
-158.92
-114.62
-65.56
-16.03
30.86
73.28
110.49
142.45
169.62
192.91
213.85
234.29
255.32
276.04
292.69
299.30
290.45
264.06
222.97
174.42
127.23
88.15
59.64
39.83
24.64
10.41
-4.41
-19.49
-34.09
-48.24
-63.13
-80.24
-100.06
-121.60
-142.82
-161.64
-177.09
-189.36
-198.85
-205.35
-207.52
-203.51
-192.14
-173.73
-150.07
-123.62
-96.59
-70.49
-46.52
-26.05
-10.75
-1.95
0.61
-0.48
-0.76
4.55
18.45
40.67
67.71
94.47
116.53
132.11
142.45
150.44
158.42
166.23
171.02
168.75
156.53
134.39
105.41
74.36
45.57
21.58
2.96
-10.95
-21.14
-28.59
-34.57
-40.85
-49.31
-60.64
-73.20
-83.27
-86.55
-80.56
-66.17
-47.68
-30.28
-17.16
-7.65
2.14
16.68
38.28
65.53
94.05
118.64
135.32
142.49
140.42
129.98
111.73
85.82
52.39
12.10
-33.32
-80.53
-124.66
-159.40
-178.40
-177.38
-156.05
-119.19
-75.52
-34.88
-4.92
11.16
14.61
9.35
-0.91
-14.32
-31.21
-52.61
-78.59
-107.53
-136.72
-163.54
-186.59
-206.00
-223.17
-239.59
-255.92
-271.42
-284.12
-291.50
-291.49
-283.38
-268.34
-248.73
-227.47
-206.79
-187.32
-168.03
-146.73
-121.22
-90.32
-54.61
-16.43
20.89
54.10
81.10
101.41
116.00
126.76
136.05
146.40
160.13
178.49
200.41
221.76
235.86
235.99
218.87
187.38
150.71
121.31
110.06
122.36
156.76
206.80
264.45
322.98
377.67
424.75
459.83
477.56
473.20
444.98
395.93
333.68
268.33
208.94
160.67
123.90
95.62
72.14
51.24
32.93
18.63
9.93
7.91
13.68
29.31
57.87
101.50
158.48
221.36
277.77
314.25
321.59
298.48
251.71
192.84
133.33
80.70
37.51
2.71
-25.79
-49.20
-67.51
-80.40
-88.41
-93.56
-98.74
-106.67
-118.84
-135.15
-154.27
-174.75
-195.96
-218.49
-243.36
-270.80
-299.05
-324.34
-341.98
-348.27
-342.06
-325.13
-301.03
-273.50
-244.98
-216.46
-188.10
-160.30
-134.18
-111.22
-92.45
-77.67
-65.47
-53.86
-41.18
-26.91
-11.72
2.81
15.05
23.90
29.23
31.77
32.70
33.11
33.55
33.81
33.22
31.03
26.94
21.20
14.58
7.97
2.05
-3.00
-7.36
-11.48
-15.72
-20.30
-25.24
-30.49
-36.13
-42.38
-49.53
-57.71
-66.62
-75.54
-83.49
-89.74
-94.34
-98.35
-103.65
-112.03
-123.91
-137.53
-148.92
-152.98
-145.35
-123.91
-89.50
-45.60
3.04
51.81
97.21
136.79
168.73
191.31
202.87
202.13
188.75
163.68
129.04
87.57
42.00
-5.40
-53.07
-99.98
-145.27
-187.92
-226.56
-259.49
-285.18
-302.65
-311.82
-313.67
-309.93
-302.58
-293.26
-282.75
-271.03
-257.64
-242.06
-224.11
-204.32
-183.88
-164.09
-145.91
-129.70
-115.09
-101.44
-87.50
-71.46
-50.95
-23.58
11.63
52.93
95.30
132.06
157.53
170.73
176.66
184.67
204.56
242.66
300.06
372.95
454.70
537.35
613.33
675.77
719.14
740.69
740.53
724.00
700.05
677.96
663.25
656.87
655.61
654.05
647.41
632.73
609.05
575.98
536.88
492.41
441.59
382.99
315.98
241.20
160.17
75.46
-10.07
-93.52
-172.46
-244.06
-306.26
-357.06
-395.65
-422.55
-438.67
-444.40
-439.12
-422.26
-394.34
-358.27
-319.39
-284.25
-258.28
-243.73
-239.39
-242.19
-249.24
-258.58
-268.99
-279.27
-288.03
-293.57
-294.80
-292.01
-287.00
-282.13
-279.26
-278.47
-277.57
-272.32
-257.52
-228.90
-185.23
-130.13
-72.41
-24.06
3.70
4.42
-20.27
-60.85
-103.27
-134.03
-143.93
-129.85
-94.13
-42.02
20.11
86.44
151.68
211.69
263.62
306.21
338.88
360.27
367.01
353.45
313.99
246.48
154.92
50.28
-51.71
-134.98
-188.00
-206.38
-192.98
-155.72
-105.28
-53.71
-13.33
5.12
-4.49
-40.54
-92.26
-142.48
-173.34
-173.53
-143.07
-92.98
-40.46
-1.66
13.37
3.19
-26.65
-66.60
-106.05
-135.94
-150.63
-149.50
-137.78
-125.12
-121.71
-134.05
-161.72
-196.83
-227.32
-241.63
-232.88
-200.78
-150.52
-89.90
-25.89
37.46
99.13
160.89
225.87
296.71
373.40
450.09
515.91
557.26
562.48
527.35
457.50
366.68
271.68
186.78
117.89
62.98
14.87
-34.27
-88.84
-147.54
-203.63
-247.33
-269.40
-264.70
-233.73
-183.04
-122.83
-63.34
-11.75
28.98
58.65
77.67
85.04
78.64
56.51
18.57
-32.55
-91.93
-153.64
-212.08
-262.95
-303.19
-329.99
-340.88
-333.17
-304.67
-255.41
-189.00
-113.37
-37.78
30.64
89.74
143.25
198.13
259.46
325.38
385.42
423.30
423.38
378.86
296.14
193.71
96.04
24.74
-8.14
-2.43
31.56
77.64
118.23
137.86
126.08
79.89
5.18
-83.77
-166.96
-225.33
-246.46
-228.76
-181.55
-120.78
-63.12
-21.21
-1.00
-1.76
-17.95
-41.51
-64.53
-81.50
-90.83
-95.23
-100.01
-110.47
-128.71
-152.57
-175.90
-191.11
-192.04
-175.30
-140.61
-90.15
-27.86
41.70
113.12
180.26
236.79
277.23
298.61
300.52
284.03
250.62
201.41
138.53
66.48
-7.09
-72.72
-122.08
-150.69
-159.20
-152.67
-137.93
-121.40
-108.69
-104.25
-110.84
-128.03
-150.92
-170.25
-175.19
-158.05
-118.49
-64.52
-9.44
33.32
55.07
54.09
34.75
5.53
-24.04
-46.04
-56.14
-54.61
-46.96
-41.22
-44.67
-61.03
-88.00
-118.03
-141.63
-151.72
-145.34
-124.26
-93.17
-56.63
-17.86
21.72
61.63
102.05
143.90
188.82
238.50
292.68
348.88
401.38
442.94
466.69
468.56
448.51
410.15
358.31
296.63
226.62
146.78
55.86
-44.45
-146.81
-238.28
-303.95
-332.14
-319.38
-271.53
-202.27
-128.16
-63.12
-14.83
16.01
33.18
41.13
41.94
34.31
14.36
-21.48
-73.50
-137.46
-205.07
-266.24
-312.21
-337.42
-340.14
-321.55
-283.99
-230.05
-163.95
-91.43
-19.53
44.94
98.56
143.67
187.55
238.45
300.51
369.27
430.79
466.12
459.05
404.03
310.11
197.81
92.01
12.92
-30.23
-40.88
-31.82
-19.80
-20.11
-42.31
-88.49
-152.52
-222.04
-281.51
-316.70
-319.02
-288.25
-232.12
-163.09
-94.12
-34.86
9.79
39.13
55.80
64.60
70.54
77.08
84.87
91.04
90.81
79.61
55.16
19.31
-22.44
-62.65
-94.35
-112.45
-114.49
-100.69
-73.07
-35.04
8.75
52.85
92.27
123.56
145.15
156.95
159.68
153.73
137.99
110.52
69.97
18.07
-39.33
-93.18
-133.97
-154.88
-154.27
-135.92
-107.32
-78.36
-58.77
-55.84
-71.91
-102.51
-137.04
-161.57
-163.73
-138.05
-88.70
-27.68
30.46
74.16
98.43
104.89
99.32
88.82
79.68
75.67
77.80
83.74
88.45
86.62
74.20
50.67
19.50
-13.06
-40.71
-59.00
-66.31
-63.21
-51.12
-32.10
-8.66
16.10
38.45
55.82
67.96
76.42
83.25
88.55
88.74
77.76
50.70
7.82
-43.33
-90.18
-120.14
-125.71
-107.05
-71.75
-30.86
4.43
24.76
24.52
2.92
-35.14
-79.28
-115.98
-132.84
-123.01
-88.16
-37.49
16.78
64.11
98.87
121.31
135.26
145.11
153.81
161.12
163.70
156.67
135.56
98.33
47.08
-12.77
-73.74
-128.31
-170.65
-197.58
-207.10
-198.39
-171.45
-128.13
-72.33
-10.35
50.13
101.96
140.83
166.13
179.97
184.69
180.28
163.16
128.01
71.95
-1.77
-82.31
-154.54
-204.82
-226.43
-221.31
-198.31
-168.05
-138.86
-115.83
-101.32
-96.14
-99.40
-107.49
-113.29
-108.38
-86.16
-45.80
6.50
59.67
102.20
126.23
129.93
116.90
94.24
70.34
52.72
46.42
52.82
68.31
85.61
96.20
93.20
74.48
43.78
8.98
-21.31
-40.94
-47.80
-43.06
-29.30
-8.71
17.45
47.93
80.82
112.83
139.84
157.38
161.41
148.89
118.14
69.90
8.29
-58.16
-118.04
-159.50
-174.06
-159.65
-120.78
-66.91
-9.23
41.77
78.52
97.58
100.03
90.42
75.43
61.81
54.32
53.72
56.89
58.77
54.82
43.17
25.32
5.28
-11.72
-21.56
-22.66
-17.23
-10.76
-10.19
-20.78
-43.71
-75.65
-109.52
-137.67
-154.46
-157.60
-147.55
-126.03
-94.72
-55.32
-9.90
38.56
85.76
127.17
158.96
178.11
182.62
171.07
142.12
95.42
33.55
-36.93
-105.20
-159.35
-189.87
-192.61
-170.00
-129.63
-81.92
-37.56
-5.79
7.80
2.83
-15.10
-35.60
-46.98
-40.28
-13.50
27.52
71.57
106.92
125.57
125.12
107.99
79.43
45.85
14.13
-9.56
-21.15
-20.52
-12.12
-3.54
-2.67
-14.75
-39.49
-71.53
-102.74
-125.22
-133.95
-127.85
-108.37
-78.12
-39.71
4.64
52.32
100.86
147.91
190.84
227.40
255.36
271.96
273.53
256.46
218.84
162.46
93.85
23.29
-37.79
-80.56
-101.38
-102.51
-90.76
-75.47
-66.06
-69.92
-90.45
-125.40
-166.49
-201.35
-217.70
-207.61
-171.28
-117.02
-57.98
-7.10
27.12
41.79
38.56
21.90
-2.84
-29.89
-52.76
-65.08
-62.62
-45.64
-19.97
4.20
15.71
7.08
-22.20
-65.20
-109.90
-143.82
-158.32
-150.16
-120.95
-75.17
-18.11
44.80
108.60
168.61
220.08
258.78
281.55
286.91
274.71
245.46
200.02
140.65
71.97
2.34
-57.09
-94.96
-103.48
-81.32
-34.19
27.38
90.79
143.64
175.30
178.29
150.15
95.43
25.65
-42.83
-94.34
-119.63
-119.20
-101.95
-80.38
-64.83
-60.22
-65.61
-76.67
-88.03
-95.18
-94.73
-84.61
-65.11
-40.21
-17.45
-6.19
-13.95
-43.51
-91.33
-148.50
-203.44
-245.78
-268.84
-270.09
-250.48
-212.57
-159.61
-95.41
-24.12
49.34
120.51
185.82
242.46
287.87
319.67
335.05
330.95
304.96
256.79
190.31
113.76
38.66
-22.90
-62.25
-77.02
-71.73
-55.01
-36.11
-22.15
-16.99
-21.86
-36.19
-57.76
-82.78
-105.87
-120.84
-123.28
-112.52
-92.21
-68.89
-49.08
-37.16
-34.48
-39.56
-48.82
-58.04
-62.93
-59.35
-44.12
-16.31
21.13
61.24
94.03
109.64
101.96
71.22
24.77
-25.55
-67.50
-92.44
-96.63
-80.54
-47.04
0.26
57.72
121.72
187.49
249.22
300.59
335.98
351.71
346.35
320.46
274.96
210.56
129.00
34.47
-65.33
-159.32
-235.66
-285.45
-305.48
-298.89
-273.19
-237.03
-198.20
-163.03
-136.84
-123.74
-124.99
-137.06
-151.56
-157.53
-145.76
-113.19
-64.53
-10.24
38.23
72.48
89.64
91.83
83.75
70.26
55.21
42.18
34.86
36.40
47.75
66.41
85.66
96.50
91.00
65.50
22.71
-28.91
-78.26
-115.10
-132.83
-129.21
-105.26
-64.33
-11.01
49.41
111.09
167.96
214.29
246.03
261.19
260.38
246.08
221.33
188.54
148.70
101.74
48.53
-7.34
-58.94
-96.77
-112.13
-100.39
-63.31
-8.73
50.86
101.76
131.66
132.26
101.68
45.55
-23.38
-88.65
-135.17
-154.44
-147.16
-122.33
-92.63
-69.05
-57.15
-57.10
-65.32
-77.37
-89.22
-97.23
-98.03
-89.44
-72.15
-50.95
-34.11
-30.47
-46.04
-81.25
-130.55
-184.13
-231.35
-263.71
-276.26
-267.38
-238.09
-190.69
-128.76
-57.02
18.83
92.45
159.03
215.47
260.29
292.85
312.98
320.02
312.51
288.52
246.71
188.42
119.23
49.04
-9.82
-45.83
-52.88
-32.36
7.43
54.67
97.10
124.96
131.77
114.79
75.50
19.95
-41.50
-96.08
-132.73
-145.91
-137.45
-115.42
-90.32
-71.22
-63.30
-67.66
-82.23
-103.76
-128.48
-151.97
-169.04
-174.23
-163.29
-135.24
-94.01
-48.35
-10.26
9.32
4.49
-22.91
-63.89
-105.48
-135.33
-145.75
-134.82
-105.15
-61.33
-7.78
51.78
113.58
173.53
226.50
267.05
290.52
294.76
280.46
250.53
208.39
157.05
99.35
39.17
-17.50
-62.63
-87.89
-88.32
-64.54
-23.09
25.87
72.11
107.58
127.21
127.94
108.35
69.77
18.19
-35.94
-80.21
-104.69
-106.34
-90.22
-66.96
-48.08
-41.30
-48.31
-65.57
-87.25
-107.47
-121.32
-124.85
-115.36
-92.52
-59.97
-25.41
0.96
9.49
-4.76
-40.12
-88.36
-137.85
-177.63
-200.44
-203.66
-188.48
-157.49
-113.23
-58.07
5.30
72.62
139.09
199.36
248.59
283.20
301.54
303.23
288.35
257.11
210.44
151.53
86.94
26.16
-20.50
-45.13
-45.85
-27.51
0.46
28.15
48.83
59.58
59.42
47.23
21.54
-17.46
-65.11
-111.55
-144.71
-155.35
-141.70
-110.55
-74.11
-44.88
-30.66
-32.48
-46.00
-64.91
-83.70
-98.78
-107.59
-107.59
-96.52
-74.09
-43.52
-12.10
10.14
14.52
-3.11
-39.97
-87.13
-132.64
-165.43
-178.15
-168.77
-139.17
-93.43
-36.71
26.04
89.81
150.01
202.22
243.57
272.98
292.10
304.35
312.18
314.80
306.71
281.17
234.28
169.02
95.21
26.32
-25.96
-56.55
-67.92
-68.13
-66.97
-72.79
-90.34
-119.81
-156.55
-192.26
-217.22
-222.81
-205.71
-169.29
-122.34
-75.33
-36.34
-8.77
8.28
17.34
21.57
23.68
26.75
34.50
50.20
74.39
103.13
127.94
137.90
124.41
84.72
23.75
-47.24
-114.86
-167.85
-199.62
-208.58
-196.73
-167.69
-125.39
-73.42
-15.27
45.48
105.32
161.59
212.64
256.89
292.46
316.59
325.61
315.35
282.45
226.13
149.56
61.32
-25.82
-98.78
-148.22
-171.34
-172.96
-162.42
-150.20
-144.70
-150.34
-167.13
-191.16
-215.51
-232.43
-235.20
-220.22
-188.54
-145.46
-98.64
-55.51
-21.05
2.94
17.24
24.36
27.92
32.09
41.33
59.97
90.82
133.75
184.86
237.06
281.03
308.04
312.05
291.15
247.86
187.66
117.26
43.06
-29.55
-95.98
-151.94
-193.63
-218.05
-223.21
-209.09
-177.89
-133.98
-83.06
-30.98
17.20
58.70
92.47
118.86
138.77
153.18
163.03
169.37
173.58
177.41
182.35
188.61
194.56
196.84
191.30
174.01
142.10
94.49
32.28
-40.88
-118.54
-191.80
-251.21
-289.17
-302.13
-292.19
-266.00
-232.31
-198.62
-169.11
-144.22
-122.27
-101.61
-81.53
-62.61
-45.70
-31.14
-18.44
-6.84
4.04
13.71
21.19
25.78
28.16
30.60
36.49
49.58
73.00
108.57
156.19
213.53
275.70
335.47
384.58
415.76
424.75
411.57
380.14
336.70
287.63
237.93
190.46
146.71
107.67
74.38
47.69
27.77
13.73
3.90
-3.48
-9.61
-14.84
-19.03
-21.94
-23.75
-25.21
-27.42
-31.49
-38.10
-47.61
-59.82
-74.30
-90.48
-107.68
-125.27
-143.09
-161.65
-182.21
-206.09
-233.48
-262.37
-288.38
-306.08
-311.36
-303.89
-287.68
-269.81
-257.52
-254.58
-259.82
-268.13
-273.55
-271.89
-261.76
-242.83
-213.91
-172.55
-117.06
-50.66
16.73
70.08
94.46
81.50
33.38
-38.53
-119.06
-195.10
-259.37
-309.22
-343.20
-358.57
-351.58
-320.16
-267.61
-203.46
-139.01
-85.85
-51.11
-35.38
-34.12
-43.12
-58.23
-77.23
-99.77
-125.53
-152.32
-176.74
-194.86
-203.52
-201.31
-188.53
-167.13
-139.87
-109.30
-77.38
-45.34
-13.90
16.05
43.11
65.63
81.97
91.50
95.11
95.16
94.91
97.61
105.41
118.78
136.72
157.51
179.55
202.17
225.61
250.56
277.85
308.18
341.99
379.42
419.50
459.23
493.14
514.03
515.22
493.21
449.48
390.21
323.92
258.20
197.50
142.98
94.45
52.59
20.09
0.75
-2.72
9.35
33.02
61.83
88.89
108.67
118.07
116.28
104.02
82.86
54.90
22.77
-10.39
-41.32
-67.46
-87.89
-103.85
-118.48
-135.68
-158.37
-186.80
-217.87
-245.81
-264.32
-269.05
-259.42
-239.04
-214.25
-191.59
-175.44
-166.83
-164.13
-164.83
-167.53
-172.35
-180.36
-191.66
-203.70
-211.26
-207.88
-188.04
-149.06
-92.31
-22.91
50.93
118.59
168.58
191.18
181.90
144.14
89.11
32.30
-12.08
-35.80
-38.23
-24.31
-0.79
26.78
54.91
81.10
102.76
117.48
124.70
127.21
130.70
140.76
159.60
184.07
206.75
220.03
220.10
208.73
192.06
177.44
169.47
168.19
169.74
168.89
161.35
145.13
119.97
86.18
44.03
-5.94
-61.84
-119.51
-172.97
-216.21
-245.28
-260.03
-264.08
-263.09
-262.53
-265.57
-272.39
-280.73
-287.07
-287.90
-280.35
-262.43
-233.10
-192.54
-142.31
-85.61
-26.77
29.69
80.04
122.42
157.12
186.60
214.71
244.90
278.03
310.89
336.35
345.84
333.28
297.85
246.02
189.73
142.27
113.17
105.85
117.76
142.53
173.14
205.33
236.04
262.18
280.56
288.43
285.15
272.65
254.28
232.39
204.85
166.12
110.27
35.74
-50.86
-134.97
-199.03
-229.60
-222.98
-186.29
-133.92
-81.34
-39.91
-14.79
-6.49
-13.53
-33.76
-65.00
-104.19
-146.45
-185.14
-213.51
-226.44
-221.75
-200.60
-167.44
-128.84
-92.37
-65.11
-52.16
-55.43
-72.76
-98.07
-123.45
-141.02
-144.93
-132.70
-105.26
-65.82
-19.01
30.38
78.36
121.64
157.75
184.99
202.79
211.48
211.84
204.52
189.46
165.77
132.02
86.82
30.07
-35.02
-101.85
-160.71
-201.38
-216.46
-204.07
-168.65
-118.63
-63.94
-13.36
27.63
56.79
73.44
77.61
69.72
50.68
22.98
-9.43
-41.59
-68.71
-87.87
-99.43
-107.61
-119.42
-142.02
-178.76
-227.18
-279.04
-322.87
-348.18
-348.66
-324.29
-279.44
-220.54
-153.90
-84.34
-15.17
50.75
110.36
160.48
199.19
226.05
241.87
248.65
248.46
242.83
232.54
217.79
199.12
178.38
159.05
145.18
140.54
146.45
160.73
178.08
191.91
196.60
188.90
168.39
136.46
95.16
46.28
-8.63
-67.68
-127.76
-184.44
-232.80
-268.65
-290.67
-300.90
-304.97
-309.71
-319.29
-333.21
-345.63
-347.69
-330.82
-291.26
-231.75
-160.28
-86.70
-19.11
38.29
85.61
124.66
157.71
186.07
210.01
229.41
244.03
253.81
258.11
255.88
246.13
229.16
207.29
184.40
165.08
152.22
145.31
140.42
132.26
116.69
93.03
63.14
29.90
-4.45
-40.09
-78.48
-120.65
-165.84
-211.06
-251.66
-282.86
-301.06
-303.76
-290.82
-264.47
-229.40
-191.29
-155.40
-124.54
-97.50
-69.86
-36.73
4.14
50.42
95.86
133.41
157.99
168.00
164.97
151.67
130.43
102.57
69.63
33.98
-1.21
-32.21
-54.90
-65.07
-58.88
-33.29
11.69
72.11
139.83
203.78
253.00
280.18
283.75
267.55
237.72
200.18
158.36
112.90
63.57
10.81
-43.11
-94.82
-141.12
-179.89
-210.14
-231.53
-243.56
-245.42
-237.07
-219.93
-196.97
-172.07
-148.19
-126.08
-104.07
-79.81
-52.63
-23.66
4.23
27.61
43.96
52.31
52.56
45.39
31.70
13.11
-7.91
-28.07
-43.15
-48.46
-39.26
-11.47
35.98
100.17
173.91
246.90
308.65
351.47
372.30
372.75
356.71
328.19
289.81
242.94
188.72
129.28
68.84
12.42
-35.52
-73.06
-102.11
-128.43
-159.53
-200.95
-252.89
-308.97
-357.57
-386.18
-385.88
-354.75
-298.22
-226.08
-149.79
-77.50
-13.72
39.45
80.74
108.56
120.82
116.63
97.15
65.95
28.33
-10.23
-44.57
-69.75
-81.07
-74.01
-46.27
0.93
61.86
127.18
186.07
229.72
253.82
258.93
248.71
226.98
196.83
159.38
115.40
66.27
14.38
-37.05
-84.80
-125.88
-157.93
-179.85
-192.65
-199.20
-204.17
-211.84
-223.34
-235.96
-243.16
-237.32
-213.03
-170.19
-114.60
-55.33
-0.89
43.54
76.51
99.18
113.14
119.59
119.17
113.02
103.43
93.29
85.60
81.86
82.12
85.69
92.49
103.17
118.82
139.32
162.16
182.47
194.25
193.03
177.45
149.06
111.46
68.54
23.12
-23.14
-68.50
-110.44
-145.41
-169.54
-179.80
-175.02
-156.71
-129.15
-99.27
-74.94
-62.52
-63.92
-75.29
-88.01
-92.29
-81.24
-54.03
-16.11
23.99
58.15
81.34
92.30
92.27
83.03
65.95
42.10
13.51
-16.34
-43.25
-63.14
-73.88
-74.84
-66.99
-51.55
-29.32
-1.04
31.74
65.93
96.84
119.61
130.86
129.22
115.59
91.85
59.56
20.07
-25.61
-75.53
-126.04
-171.95
-207.59
-228.33
-232.29
-221.57
-201.92
-181.30
-166.71
-161.44
-163.29
-164.98
-157.39
-134.02
-94.47
-43.83
9.37
57.16
95.00
122.67
142.69
157.85
169.71
178.31
183.69
186.58
188.05
189.17
189.96
189.91
188.25
185.27
182.67
182.80
186.55
192.78
198.09
197.94
188.84
169.61
141.70
107.93
70.55
30.35
-13.01
-59.87
-109.49
-159.49
-206.31
-245.65
-273.47
-287.39
-287.50
-277.25
-261.98
-246.71
-233.46
-219.80
-200.09
-168.56
-124.13
-70.56
-15.15
34.80
75.02
104.95
126.11
139.44
144.00
138.07
121.58
97.80
72.93
53.69
44.17
44.19
50.03
57.55
64.04
70.01
77.79
89.28
103.81
117.63
125.52
123.00
108.49
83.25
50.64
13.98
-24.85
-65.10
-106.47
-147.70
-185.79
-216.28
-234.66
-238.26
-227.90
-208.41
-187.53
-173.07
-169.06
-173.87
-180.45
-179.12
-161.48
-124.33
-71.28
-10.25
49.37
100.09
138.15
163.25
177.24
182.47
180.90
174.39
165.56
157.91
154.88
158.41
168.25
181.73
194.81
203.57
206.56
205.48
203.48
203.47
205.65
206.82
201.78
185.45
155.13
111.57
58.32
-0.92
-62.90
-124.79
-183.92
-237.00
-279.98
-308.67
-319.93
-313.39
-292.36
-263.45
-234.94
-213.69
-202.20
-197.67
-192.87
-179.32
-151.53
-109.40
-58.17
-5.89
41.04
79.58
109.89
133.36
150.95
162.17
165.44
159.54
143.88
118.96
87.08
52.69
21.60
0.61
-4.67
7.86
35.28
69.93
101.68
121.48
124.08
109.00
79.46
40.62
-2.84
-47.83
-92.63
-135.27
-173.18
-203.12
-222.00
-228.11
-221.40
-203.01
-174.45
-137.35
-93.89
-47.55
-4.06
29.27
45.88
42.92
22.78
-6.48
-33.73
-48.93
-46.54
-26.70
5.93
44.91
84.33
119.98
149.06
169.09
177.64
172.88
153.86
121.40
78.00
28.20
-21.53
-63.17
-88.45
-91.39
-70.93
-32.56
12.47
50.68
70.43
65.38
35.83
-12.92
-73.70
-139.89
-207.36
-273.57
-335.98
-390.99
-434.15
-461.00
-467.93
-453.03
-416.01
-357.97
-281.30
-190.44
-93.01
0.48
78.46
131.86
157.68
160.93
153.23
148.50
157.57
183.89
222.90
264.60
297.83
314.44
311.35
289.98
254.38
209.74
161.66
116.47
80.98
61.41
61.18
78.77
107.37
137.18
159.24
168.60
165.78
155.49
143.32
133.07
125.57
119.50
113.16
105.38
95.48
83.15
67.95
49.32
27.01
1.31
-27.21
-58.37
-92.26
-128.48
-165.30
-199.40
-226.19
-240.02
-235.26
-207.67
-156.36
-85.73
-5.75
70.83
132.93
175.84
203.22
224.76
250.28
284.71
326.02
367.35
401.24
422.05
426.52
412.47
377.30
319.57
241.21
149.92
57.61
-21.70
-76.81
-103.10
-102.58
-83.46
-56.39
-31.06
-14.57
-10.21
-17.33
-32.56
-51.27
-68.55
-81.16
-87.71
-88.87
-87.28
-86.80
-90.74
-100.15
-112.65
-122.69
-123.86
-111.96
-87.24
-55.27
-24.87
-4.52
0.96
-8.55
-29.53
-57.48
-88.68
-120.50
-151.49
-179.48
-201.38
-213.83
-214.47
-202.26
-177.77
-142.86
-100.39
-55.14
-13.39
17.45
30.66
22.75
-4.35
-43.28
-82.95
-112.50
-124.88
-118.41
-96.21
-63.95
-27.21
9.85
44.89
76.87
105.24
129.82
151.17
169.74
185.56
198.18
205.80
205.58
194.34
169.82
132.45
85.84
37.31
-4.63
-33.69
-48.37
-52.25
-51.52
-52.20
-58.00
-68.95
-83.31
-99.10
-115.37
-131.94
-148.83
-164.85
-177.54
-183.69
-180.51
-166.60
-142.83
-113.17
-84.15
-63.24
-56.07
-63.96
-82.61
-102.78
-114.16
-109.52
-87.70
-53.51
-15.02
20.22
47.90
67.60
81.56
91.65
98.96
103.92
106.96
109.22
112.57
118.69
127.35
136.71
143.00
143.02
135.63
122.10
105.12
87.09
69.43
52.49
36.43
21.83
10.26
2.73
-2.01
-7.06
-16.31
-32.58
-56.27
-85.18
-115.64
-143.73
-166.14
-180.66
-186.00
-182.91
-174.25
-164.29
-156.17
-150.77
-145.64
-135.37
-114.94
-81.63
-37.02
13.81
64.30
108.80
143.75
167.92
181.72
186.32
183.93
177.30
169.59
164.00
162.28
164.36
168.32
170.67
166.74
152.05
123.81
82.69
33.40
-15.81
-56.11
-81.49
-91.08
-89.25
-83.32
-79.96
-83.51
-95.04
-113.17
-135.76
-161.00
-187.34
-213.11
-234.88
-247.76
-246.69
-228.45
-193.98
-148.95
-102.42
-62.92
-35.24
-18.39
-5.84
10.70
36.70
72.00
111.21
146.70
172.34
186.29
190.43
188.74
184.82
180.45
174.88
166.32
153.50
137.08
119.21
102.39
88.12
76.23
65.16
53.07
39.35
24.58
9.84
-4.41
-18.57
-33.92
-51.99
-73.60
-98.00
-123.84
-149.44
-173.15
-193.76
-209.81
-219.52
-220.94
-212.38
-192.11
-159.72
-117.43
-70.56
-26.52
7.53
27.42
34.41
34.58
35.90
43.95
59.75
80.33
101.43
119.71
133.73
143.26
147.52
144.76
133.40
113.31
86.98
58.63
33.52
16.57
10.80
16.64
30.79
47.60
61.31
68.30
68.40
64.60
61.10
60.58
62.81
64.86
63.21
55.38
40.88
20.60
-4.22
-32.91
-65.26
-100.35
-135.73
-167.00
-189.17
-197.86
-192.26
-176.08
-156.40
-141.13
-134.29
-133.96
-133.19
-122.70
-96.30
-53.56
-0.35
53.88
100.21
133.56
153.46
162.91
165.54
164.46
161.36
156.81
151.38
145.11
137.65
127.88
114.14
95.36
71.97
46.96
24.95
10.31
4.87
6.53
9.99
9.31
0.83
-15.47
-36.51
-58.24
-78.74
-98.29
-118.86
-142.03
-167.42
-192.35
-213.11
-225.67
-226.92
-214.81
-189.47
-153.59
-112.40
-72.47
-39.19
-15.18
1.61
16.74
35.61
60.60
89.51
116.89
137.04
147.20
148.60
145.18
140.69
136.87
133.07
127.41
118.74
107.00
92.86
77.54
62.26
48.35
37.46
31.24
30.53
34.31
39.36
41.12
35.55
21.21
-0.92
-28.14
-57.24
-86.24
-114.48
-141.85
-167.27
-188.43
-202.00
-204.79
-194.61
-171.06
-136.06
-93.75
-50.67
-14.24
9.63
18.96
17.17
11.58
11.04
21.51
43.68
73.21
103.36
128.26
144.93
153.45
155.81
154.15
149.61
143.12
135.52
127.67
120.63
114.48
108.22
99.54
85.47
63.70
34.49
1.21
-30.24
-53.69
-65.79
-67.48
-63.56
-60.25
-62.41
-71.60
-86.17
-103.74
-122.08
-140.67
-159.92
-179.91
-199.43
-215.94
-225.72
-225.02
-210.78
-182.04
-141.31
-94.47
-49.46
-13.47
9.76
21.95
29.36
39.65
57.99
84.72
115.72
145.03
167.83
182.19
189.21
191.57
191.44
189.92
187.17
182.97
177.27
170.07
161.09
149.41
133.21
110.35
79.66
42.55
3.40
-31.46
-56.11
-67.97
-69.03
-64.89
-62.03
-64.87
-74.17
-87.92
-103.47
-118.85
-134.20
-150.51
-168.05
-185.36
-199.28
-205.60
-200.53
-181.47
-148.52
-105.49
-59.20
-17.73
12.67
29.68
36.69
41.19
50.82
69.28
94.53
120.23
139.23
147.24
144.36
134.41
121.80
109.97
100.00
91.18
82.45
73.42
63.79
53.32
41.30
27.29
11.37
-4.68
-17.71
-24.58
-24.14
-18.49
-12.21
-10.19
-15.21
-26.92
-42.13
-57.49
-71.71
-85.45
-100.79
-119.13
-139.85
-160.29
-176.98
-186.24
-185.15
-171.55
-145.43
-109.34
-68.58
-30.10
-0.01
18.93
29.03
36.05
46.36
64.12
88.52
114.71
136.60
150.06
154.38
151.97
145.81
137.75
127.94
115.82
101.49
86.20
70.99
56.56
42.47
27.74
12.32
-1.54
-10.10
-10.36
-1.75
12.52
26.13
32.35
27.21
11.37
-10.47
-32.23
-48.84
-58.71
-63.77
-66.97
-71.10
-77.67
-86.69
-97.38
-108.55
-118.36
-124.20
-122.57
-110.71
-88.51
-59.53
-30.26
-7.52
4.87
7.95
7.98
12.16
25.17
47.02
72.96
96.44
112.50
119.80
120.39
117.29
113.11
108.74
103.73
97.40
89.27
78.87
65.91
49.86
30.77
9.60
-10.59
-26.14
-33.86
-32.96
-26.00
-17.76
-12.94
-13.70
-19.00
-25.72
-30.67
-33.42
-35.95
-41.31
-51.19
-64.88
-79.56
-91.77
-98.85
-99.84
-94.80
-85.14
-73.08
-61.65
-53.91
-51.49
-53.23
-55.56
-53.38
-42.48
-21.71
5.69
34.68
60.17
79.39
92.06
99.21
101.92
100.47
94.37
82.76
64.98
40.82
11.69
-18.50
-43.39
-55.27
-49.21
-25.59
9.38
45.16
71.62
82.81
78.68
63.92
44.49
24.38
4.48
-15.73
-36.46
-56.72
-73.76
-85.10
-90.34
-91.61
-93.00
-98.52
-110.14
-126.42
-142.86
-153.35
-152.71
-138.60
-111.96
-76.36
-36.33
3.99
41.09
73.21
100.08
122.24
141.38
158.82
173.93
183.31
181.61
164.26
130.31
85.00
38.51
2.27
-15.70
-14.46
0.74
21.85
41.65
55.95
63.94
66.88
66.85
66.46
68.08
72.98
79.44
82.41
74.60
49.30
3.98
-56.89
-122.02
-176.69
-207.78
-208.37
-179.82
-130.71
-73.12
-19.58
20.58
42.78
46.62
34.57
10.33
-22.10
-58.01
-92.24
-120.06
-137.72
-143.56
-138.62
-126.48
-111.28
-96.34
-82.78
-69.66
-54.50
-35.02
-10.60
16.92
43.72
65.68
80.15
87.24
89.82
92.23
98.32
109.77
125.68
143.33
159.70
172.78
182.22
188.88
194.23
199.79
207.01
217.22
231.37
249.24
268.74
285.72
294.89
291.54
273.34
241.26
199.22
152.55
106.31
63.95
27.04
-4.33
-30.95
-53.97
-74.53
-93.47
-111.05
-126.76
-139.50
-148.31
-153.11
-155.13
-156.77
-160.53
-167.76
-177.84
-188.32
-195.72
-197.30
-192.26
-182.48
-172.22
-166.93
-171.72
-189.35
-218.52
-252.90
-281.86
-293.21
-277.64
-233.14
-167.27
-95.92
-38.14
-8.76
-11.99
-39.11
-71.76
-89.52
-78.48
-37.10
23.72
85.61
130.19
146.01
132.21
97.83
57.83
27.79
19.66
39.08
84.60
147.88
215.48
271.83
303.49
303.71
275.21
230.08
185.71
158.29
156.59
178.90
214.64
249.40
271.04
273.60
257.72
228.12
190.26
148.29
105.20
63.67
26.76
-2.32
-21.73
-32.48
-38.70
-46.35
-61.10
-86.18
-121.64
-164.43
-209.35
-250.54
-282.80
-302.66
-308.92
-302.53
-286.04
-262.61
-235.13
-205.84
-176.43
-148.35
-122.85
-100.83
-82.45
-67.10
-53.85
-41.96
-31.31
-22.46
-16.18
-12.89
-12.51
-14.58
-18.43
-23.30
-28.20
-31.90
-33.17
-31.25
-26.39
-19.87
-13.68
-9.76
-9.35
-12.67
-19.01
-27.06
-35.33
-42.42
-47.31
-49.49
-49.15
-47.07
-44.28
-41.48
-38.67
-35.14
-29.95
-22.68
-13.87
-4.93
2.50
7.35
9.65
10.42
11.02
12.39
14.59
16.92
18.51
18.96
18.55
18.20
18.86
21.15
25.05
30.02
35.11
39.39
42.16
43.10
42.28
40.06
36.94
33.30
29.26
24.73
19.48
13.53
7.30
1.56
-2.89
-5.56
-6.60
-6.63
-6.38
-6.32
-6.42
-6.32
-5.63
-4.31
-2.69
-1.22
-0.06
1.12
3.09
6.67
12.10
18.80
25.44
30.48
32.83
32.33
29.80
26.50
23.45
20.91
18.33
14.85
9.96
3.91
-2.36
-7.65
-11.21
-13.03
-13.76
-14.31
-15.44
-17.38
-19.82
-22.10
-23.55
-23.73
-22.68
-20.81
-18.76
-17.10
-16.05
-15.52
-15.22
-14.82
-14.14
-13.04
-11.39
-9.10
-6.22
-3.04
-0.04
2.37
4.05
5.19
5.99
6.39
5.94
4.11
0.95
-2.64
-5.02
-4.63
-0.88
5.36
12.05
16.87
18.15
15.51
9.75
2.40
-4.87
-10.71
-14.24
-15.11
-13.40
-9.53
-4.00
2.87
11.10
20.93
32.44
45.13
57.93
69.50
78.83
85.60
90.18
93.20
95.09
95.69
94.41
90.76
84.78
77.14
68.87
60.78
53.04
45.10
36.05
25.21
12.51
-1.35
-15.14
-27.61
-38.02
-46.32
-53.00
-58.68
-63.71
-68.00
-71.15
-72.66
-72.13
-69.46
-65.00
-59.76
-55.33
-53.53
-55.73
-62.19
-71.52
-80.85
-86.52
-85.19
-74.95
-55.85
-29.87
-0.23
29.55
56.35
78.08
93.85
103.90
109.31
111.43
111.52
110.46
108.70
106.46
103.78
100.53
96.43
91.16
84.54
76.64
67.77
58.31
48.58
38.66
28.47
18.02
7.56
-2.36
-11.19
-18.64
-24.91
-30.54
-35.98
-41.26
-46.01
-49.83
-52.82
-55.66
-59.26
-64.06
-69.46
-73.98
-75.98
-74.59
-70.22
-64.32
-58.48
-53.57
-49.31
-44.79
-39.22
-32.59
-25.79
-19.98
-15.78
-12.84
-10.00
-6.10
-0.89
4.43
7.43
5.49
-2.92
-17.34
-35.30
-53.13
-67.33
-75.83
-78.58
-77.21
-74.20
-71.72
-70.87
-71.42
-72.20
-71.87
-69.69
-65.95
-61.79
-58.78
-58.22
-60.80
-66.48
-74.44
-82.88
-88.88
-88.47
-77.60
-53.88
-18.12
24.92
67.54
101.50
120.67
122.87
109.91
86.14
56.40
24.59
-6.67
-35.40
-59.40
-76.17
-83.69
-81.58
-71.86
-58.31
-44.72
-32.89
-21.77
-8.23
10.77
36.03
65.42
95.03
121.25
142.53
159.51
173.74
185.98
195.26
199.35
196.22
185.20
167.36
144.88
120.28
96.09
75.15
60.75
56.13
63.30
81.60
107.28
134.50
157.17
171.02
174.48
168.29
154.29
134.28
109.54
81.29
51.19
21.41
-5.95
-29.73
-50.05
-67.90
-84.27
-99.35
-112.31
-121.70
-126.32
-125.88
-121.26
-114.27
-107.02
-101.28
-98.01
-97.31
-98.56
-100.80
-102.90
-103.87
-102.96
-99.61
-93.37
-83.98
-71.32
-55.66
-37.85
-19.21
-1.30
14.52
27.35
36.91
43.33
46.90
47.77
46.00
41.68
35.26
27.54
19.54
12.13
5.78
0.54
-3.83
-7.60
-11.07
-14.52
-18.31
-22.84
-28.48
-35.34
-43.07
-50.85
-57.50
-61.88
-63.30
-61.96
-58.86
-55.51
-53.34
-53.06
-54.51
-56.84
-59.10
-60.71
-61.71
-62.60
-63.87
-65.60
-67.41
-68.66
-68.95
-68.27
-67.00
-65.51
-63.75
-61.20
-57.17
-51.27
-43.66
-34.88
-25.42
-15.27
-3.95
9.11
24.05
40.28
56.82
72.86
88.21
103.20
118.09
132.41
144.64
152.78
155.24
151.82
143.99
134.44
126.01
120.65
118.82
119.59
121.22
121.96
120.66
116.96
111.27
104.43
97.43
91.06
85.66
80.99
76.17
69.99
61.16
48.71
32.40
12.80
-8.69
-30.25
-50.15
-67.17
-80.89
-91.49
-99.38
-104.85
-107.96
-108.78
-107.59
-105.15
-102.47
-100.48
-99.57
-99.42
-99.11
-97.63
-94.25
-88.91
-82.17
-74.90
-67.94
-61.79
-56.54
-51.90
-47.43
-42.84
-38.08
-33.35
-28.94
-25.08
-21.86
-19.19
-16.97
-15.13
-13.70
-12.74
-12.37
-12.64
-13.64
-15.52
-18.60
-23.34
-30.10
-38.90
-49.15
-59.60
-68.60
-74.48
-75.96
-72.30
-63.19
-48.56
-28.64
-4.14
23.47
51.91
78.50
100.86
117.57
128.50
134.61
137.39
138.19
137.77
136.10
132.47
125.81
115.11
99.94
80.88
59.65
38.79
20.88
7.81
0.14
-2.86
-2.79
-1.44
-0.26
-0.19
-1.57
-4.39
-8.37
-12.92
-17.29
-20.61
-22.08
-21.20
-17.91
-12.66
-6.29
0.11
5.52
9.33
11.53
12.65
13.50
14.79
16.76
19.14
21.33
22.63
22.56
20.82
17.28
11.94
4.98
-2.98
-10.91
-17.43
-21.19
-21.53
-18.71
-13.88
-8.59
-4.22
-1.51
-0.58
-1.13
-2.64
-4.70
-6.95
-9.01
-10.58
-11.46
-11.68
-11.55
-11.62
-12.45
-14.36
-17.38
-21.22
-25.47
-29.77
-33.80
-37.31
-40.08
-41.92
-42.71
-42.37
-40.95
-38.58
-35.30
-31.04
-25.70
-19.34
-12.34
-5.43
0.50
4.78
7.19
8.06
7.98
7.48
6.84
5.99
4.75
3.02
0.93
-1.21
-3.08
-4.52
-5.66
-6.84
-8.44
-10.67
-13.45
-16.37
-18.90
-20.62
-21.43
-21.57
-21.56
-22.07
-23.61
-26.42
-30.25
-34.38
-37.78
-39.39
-38.52
-35.19
-30.21
-24.84
-20.31
-17.33
-15.72
-14.65
-13.01
-10.04
-5.66
-0.40
4.91
9.59
13.48
16.88
20.41
24.67
29.93
36.05
42.53
48.61
53.38
55.95
55.59
52.00
45.48
36.90
27.45
18.20
9.82
2.47
-3.92
-9.38
-13.63
-16.13
-16.46
-14.72
-11.67
-8.73
-7.36
-8.58
-12.49
-18.28
-24.56
-30.09
-34.30
-37.62
-41.13
-46.08
-53.10
-61.95
-71.56
-80.62
-88.17
-94.08
-98.99
-103.99
-110.15
-118.19
-128.33
-140.33
-153.30
-165.41
-173.85
-175.26
-166.76
-147.03
-117.02
-79.72
-39.12
1.27
39.37
74.75
108.21
140.88
173.73
207.13
240.75
273.34
302.83
326.61
342.15
347.91
343.64
330.01
307.86
277.70
240.20
197.48
154.18
117.16
93.54
87.82
99.66
123.69
151.48
174.63
187.39
187.47
175.34
152.72
121.51
83.63
41.59
-1.23
-40.92
-74.04
-98.70
-115.03
-124.84
-130.81
-135.32
-139.65
-143.72
-146.37
-146.13
-142.08
