1479956522.00
64.000000
-0.00
-0.00
-0.00
-0.00
-0.00
-0.00
-0.00
-0.00
-0.00
-0.00
0.00
0.01
0.01
-0.00
-0.03
-0.05
-0.05
0.00
0.13
0.36
0.66
1.01
1.38
1.72
2.05
2.39
2.78
3.24
3.83
4.48
5.14
5.71
6.15
6.47
6.75
7.09
7.59
8.37
9.36
10.41
11.37
12.15
12.78
13.46
14.43
15.90
18.10
20.84
23.78
26.53
28.85
30.82
32.80
35.35
38.93
43.99
50.13
56.64
62.75
67.89
72.11
76.06
80.74
87.03
95.63
105.97
116.90
127.07
135.52
142.19
148.00
154.86
162.12
172.40
186.18
203.02
220.93
236.32
244.69
241.80
225.07
194.51
153.07
104.61
53.02
0.80
-51.41
-104.31
-158.78
-214.68
-270.00
-320.55
-361.68
-389.09
-400.41
-396.00
-378.79
-353.19
-323.48
-292.75
-262.47
-233.41
-206.13
-181.32
-159.82
-141.99
-127.27
-114.28
-101.45
-87.70
-73.04
-58.31
-44.83
-33.68
-25.22
-18.98
-13.92
-8.94
-3.30
3.02
9.43
15.10
19.36
22.03
23.46
24.35
25.36
26.86
28.81
30.81
32.39
33.18
33.10
32.33
31.24
30.17
29.32
28.70
28.18
27.57
26.78
25.79
24.71
23.62
22.59
21.64
20.72
19.82
18.94
18.11
17.34
16.64
16.00
15.41
14.89
14.41
13.97
13.51
13.03
12.50
11.99
11.51
11.08
10.65
10.17
9.60
8.98
8.42
8.04
7.90
7.94
8.03
8.00
7.75
7.29
6.76
6.33
6.13
6.16
6.30
6.37
6.23
5.87
5.39
4.94
4.66
4.60
4.69
4.84
4.92
4.90
4.78
4.59
4.38
4.16
3.94
3.75
3.62
3.60
3.68
3.84
4.01
4.11
4.08
3.91
3.62
3.27
2.94
2.70
2.59
2.61
2.70
2.78
2.79
2.71
2.59
2.48
2.44
2.46
2.51
2.49
2.39
2.23
2.08
1.98
1.95
1.96
1.98
1.96
1.92
1.87
1.83
1.80
1.77
1.73
1.66
1.55
1.42
1.28
1.17
1.13
1.22
1.42
1.70
1.97
2.12
2.08
1.85
1.48
1.08
0.76
0.60
0.63
0.81
1.03
1.20
1.24
1.17
1.05
0.99
1.02
1.13
1.23
1.23
1.09
0.88
0.71
0.69
0.83
1.06
1.25
1.30
1.17
0.94
0.75
0.70
0.80
0.99
1.13
1.12
0.97
0.75
0.58
0.53
0.62
0.80
0.96
1.05
1.03
0.93
0.80
0.70
0.67
0.73
0.85
1.00
1.11
1.09
0.93
0.63
0.28
-0.02
-0.18
-0.16
0.03
0.34
0.67
0.93
1.05
1.01
0.84
0.61
0.45
0.42
0.53
0.73
0.96
1.12
1.18
1.17
1.13
1.09
1.04
0.95
0.79
0.55
0.29
0.09
0.03
0.13
0.33
0.52
0.60
0.55
0.42
0.31
0.29
0.35
0.42
0.45
0.43
0.40
0.41
0.46
0.51
0.50
0.43
0.33
0.26
0.23
0.20
0.11
-0.07
-0.29
-0.43
-0.40
-0.19
0.12
0.40
0.55
0.54
0.45
0.39
0.43
0.58
0.78
0.93
0.97
0.88
0.71
0.54
0.43
0.39
0.38
0.33
0.23
0.09
-0.01
-0.03
0.04
0.16
0.25
0.25
0.16
0.02
-0.09
-0.09
0.03
0.25
0.48
0.64
0.67
0.60
0.46
0.37
0.35
0.39
0.40
0.30
0.05
-0.28
-0.58
-0.70
-0.63
-0.40
-0.13
0.07
0.17
0.19
0.19
0.19
0.21
0.24
0.27
0.34
0.45
0.60
0.76
0.90
0.98
0.96
0.85
0.62
0.30
-0.10
-0.50
-0.78
-0.89
-0.79
-0.55
-0.26
0.01
0.24
0.46
0.72
0.98
1.19
1.22
1.04
0.68
0.25
-0.08
-0.23
-0.19
-0.07
-0.00
-0.06
-0.21
-0.36
-0.39
-0.27
-0.04
0.20
0.33
0.32
0.22
0.11
0.06
0.09
0.13
0.10
-0.04
-0.23
-0.40
-0.45
-0.34
-0.15
0.05
0.17
0.21
0.23
0.28
0.40
0.54
0.64
0.63
0.53
0.41
0.33
0.34
0.39
0.41
0.33
0.18
0.03
-0.02
0.08
0.29
0.51
0.65
0.68
0.63
0.56
0.53
0.53
0.50
0.39
0.18
-0.07
-0.32
-0.50
-0.62
-0.69
-0.74
-0.76
-0.69
-0.53
-0.29
-0.03
0.20
0.32
0.34
0.24
0.05
-0.20
-0.46
-0.66
-0.76
-0.69
-0.47
-0.13
0.25
0.59
0.82
0.89
0.80
0.56
0.25
-0.06
-0.27
-0.31
-0.17
0.12
0.46
0.77
0.95
0.94
0.73
0.35
-0.09
-0.48
-0.70
-0.68
-0.45
-0.12
0.16
0.29
0.22
0.01
-0.25
-0.45
-0.51
-0.39
-0.11
0.24
0.57
0.79
0.84
0.73
0.51
0.25
-0.01
-0.22
-0.39
-0.50
-0.53
-0.45
-0.25
0.04
0.34
0.55
0.60
0.47
0.23
-0.01
-0.13
-0.11
0.01
0.10
0.06
-0.14
-0.42
-0.65
-0.69
-0.54
-0.30
-0.11
-0.11
-0.26
-0.45
-0.54
-0.46
-0.25
-0.06
-0.01
-0.13
-0.33
-0.47
-0.42
-0.16
0.24
0.68
1.05
1.34
1.54
1.65
1.63
1.43
1.02
0.44
-0.18
-0.68
-0.92
-0.85
-0.55
-0.14
0.21
0.43
0.50
0.48
0.46
0.47
0.49
0.50
0.48
0.43
0.36
0.30
0.22
0.09
-0.10
-0.34
-0.56
-0.69
-0.67
-0.53
-0.34
-0.18
-0.10
-0.10
-0.12
-0.13
-0.09
-0.04
-0.03
-0.09
-0.22
-0.38
-0.51
-0.58
-0.58
-0.54
-0.49
-0.44
-0.37
-0.25
-0.08
0.11
0.29
0.41
0.48
0.52
0.56
0.58
0.54
0.40
0.15
-0.16
-0.47
-0.71
-0.85
-0.86
-0.76
-0.57
-0.33
-0.10
0.08
0.18
0.21
0.20
0.19
0.21
0.27
0.38
0.51
0.65
0.76
0.84
0.88
0.89
0.93
1.00
1.08
1.09
0.96
0.66
0.23
-0.19
-0.51
-0.65
-0.64
-0.55
-0.47
-0.43
-0.44
-0.47
-0.49
-0.47
-0.42
-0.34
-0.27
-0.24
-0.25
-0.29
-0.33
-0.34
-0.29
-0.17
-0.04
0.08
0.14
0.13
0.06
-0.02
-0.09
-0.09
-0.02
0.11
0.27
0.43
0.55
0.62
0.63
0.57
0.42
0.16
-0.19
-0.57
-0.88
-1.04
-1.00
-0.79
-0.49
-0.23
-0.08
-0.04
-0.01
0.09
0.32
0.64
0.94
1.06
0.93
0.57
0.12
-0.27
-0.47
-0.49
-0.39
-0.27
-0.13
0.05
0.32
0.66
0.95
1.05
0.88
0.48
0.06
-0.19
-0.15
0.13
0.50
0.77
0.86
0.75
0.53
0.24
-0.06
-0.36
-0.60
-0.72
-0.66
-0.44
-0.12
0.15
0.24
0.13
-0.14
-0.45
-0.66
-0.70
-0.59
-0.39
-0.18
-0.03
0.04
0.05
0.01
-0.05
-0.10
-0.17
-0.25
-0.36
-0.46
-0.52
-0.53
-0.44
-0.26
-0.02
0.25
0.47
0.60
0.60
0.49
0.29
0.07
-0.13
-0.24
-0.26
-0.17
-0.01
0.17
0.32
0.39
0.38
0.29
0.18
0.09
0.04
0.02
-0.01
-0.09
-0.22
-0.38
-0.55
-0.68
-0.77
-0.78
-0.69
-0.49
-0.17
0.19
0.49
0.63
0.57
0.35
0.07
-0.13
-0.19
-0.06
0.16
0.37
0.50
0.50
0.40
0.29
0.23
0.25
0.32
0.37
0.33
0.18
-0.05
-0.30
-0.50
-0.64
-0.71
-0.72
-0.70
-0.62
-0.48
-0.29
-0.09
0.10
0.24
0.32
0.36
0.37
0.35
0.29
0.21
0.12
0.07
0.09
0.19
0.34
0.47
0.48
0.36
0.14
-0.07
-0.13
0.03
0.35
0.71
0.94
0.93
0.69
0.31
-0.08
-0.36
-0.51
-0.55
-0.53
-0.51
-0.48
-0.43
-0.33
-0.18
-0.01
0.12
0.15
0.05
-0.15
-0.36
-0.50
-0.50
-0.36
-0.14
0.10
0.30
0.43
0.48
0.47
0.41
0.29
0.15
0.02
-0.04
-0.01
0.09
0.20
0.25
0.20
0.07
-0.10
-0.25
-0.31
-0.26
-0.09
0.16
0.42
0.58
0.56
0.33
-0.04
-0.41
-0.62
-0.61
-0.43
-0.22
-0.12
-0.17
-0.32
-0.46
-0.49
-0.44
-0.39
-0.46
-0.63
-0.82
-0.92
-0.84
-0.59
-0.29
-0.04
0.11
0.19
0.26
0.38
0.54
0.68
0.76
0.75
0.69
0.63
0.60
0.59
0.55
0.41
0.15
-0.19
-0.50
-0.66
-0.61
-0.37
-0.02
0.31
0.51
0.54
0.45
0.30
0.15
0.02
-0.09
-0.22
-0.35
-0.45
-0.48
-0.40
-0.26
-0.07
0.11
0.25
0.34
0.40
0.42
0.41
0.37
0.28
0.17
0.08
0.05
0.09
0.19
0.25
0.17
-0.08
-0.45
-0.80
-0.96
-0.86
-0.52
-0.11
0.18
0.29
0.24
0.17
0.19
0.28
0.37
0.34
0.16
-0.07
-0.22
-0.19
0.01
0.25
0.41
0.38
0.18
-0.10
-0.35
-0.50
-0.52
-0.43
-0.28
-0.11
0.02
0.09
0.10
0.05
-0.02
-0.08
-0.13
-0.18
-0.24
-0.30
-0.32
-0.27
-0.15
0.01
0.17
0.28
0.32
0.32
0.36
0.46
0.63
0.77
0.82
0.73
0.51
0.26
0.06
-0.06
-0.14
-0.23
-0.41
-0.66
-0.92
-1.10
-1.12
-0.98
-0.75
-0.49
-0.27
-0.13
-0.04
0.00
-0.00
-0.06
-0.17
-0.26
-0.27
-0.14
0.15
0.50
0.79
0.91
0.83
0.61
0.36
0.20
0.14
0.14
0.11
-0.02
-0.20
-0.37
-0.43
-0.34
-0.16
0.00
0.06
-0.02
-0.20
-0.34
-0.37
-0.24
0.00
0.29
0.54
0.72
0.81
0.82
0.73
0.55
0.30
0.03
-0.17
-0.22
-0.09
0.15
0.40
0.53
0.50
0.33
0.12
-0.05
-0.11
-0.10
-0.09
-0.13
-0.23
-0.34
-0.38
-0.31
-0.14
0.03
0.10
0.00
-0.24
-0.52
-0.71
-0.74
-0.61
-0.37
-0.12
0.07
0.17
0.16
0.07
-0.07
-0.20
-0.28
-0.28
-0.23
-0.16
-0.13
-0.15
-0.20
-0.25
-0.26
-0.23
-0.19
-0.17
-0.19
-0.20
-0.18
-0.12
-0.03
0.06
0.14
0.23
0.32
0.37
0.36
0.27
0.14
0.03
0.00
0.09
0.25
0.39
0.45
0.40
0.26
0.06
-0.13
-0.28
-0.34
-0.28
-0.07
0.25
0.60
0.87
0.96
0.85
0.61
0.37
0.25
0.28
0.42
0.55
0.59
0.51
0.35
0.21
0.16
0.19
0.23
0.19
0.01
-0.27
-0.53
-0.69
-0.69
-0.56
-0.39
-0.28
-0.25
-0.29
-0.35
-0.39
-0.43
-0.48
-0.59
-0.73
-0.84
-0.81
-0.60
-0.22
0.23
0.64
0.89
0.93
0.77
0.50
0.19
-0.08
-0.30
-0.42
-0.44
-0.34
-0.13
0.12
0.34
0.44
0.41
0.25
0.08
-0.04
-0.05
0.02
0.11
0.16
0.14
0.10
0.11
0.20
0.36
0.51
0.56
0.42
0.12
-0.26
-0.61
-0.84
-0.89
-0.77
-0.54
-0.26
0.04
0.28
0.46
0.55
0.54
0.43
0.24
-0.02
-0.31
-0.57
-0.71
-0.66
-0.42
-0.06
0.26
0.41
0.28
-0.08
-0.54
-0.89
-0.98
-0.77
-0.32
0.19
0.59
0.79
0.75
0.57
0.33
0.13
-0.01
-0.11
-0.23
-0.36
-0.44
-0.40
-0.16
0.22
0.62
0.88
0.89
0.66
0.29
-0.05
-0.28
-0.38
-0.41
-0.43
-0.48
-0.53
-0.52
-0.40
-0.16
0.14
0.46
0.71
0.86
0.88
0.75
0.50
0.16
-0.21
-0.53
-0.71
-0.71
-0.55
-0.29
-0.06
0.03
-0.07
-0.33
-0.63
-0.80
-0.74
-0.42
0.07
0.59
0.97
1.12
1.03
0.76
0.41
0.10
-0.13
-0.25
-0.28
-0.27
-0.26
-0.26
-0.29
-0.33
-0.37
-0.37
-0.30
-0.17
0.03
0.25
0.43
0.51
0.48
0.34
0.17
0.02
-0.08
-0.09
-0.02
0.10
0.25
0.36
0.40
0.31
0.11
-0.14
-0.34
-0.39
-0.28
-0.08
0.14
0.26
0.26
0.12
-0.13
-0.45
-0.73
-0.84
-0.67
-0.20
0.48
1.14
1.55
1.58
1.21
0.60
-0.07
-0.66
-1.11
-1.39
-1.50
-1.42
-1.13
-0.68
-0.17
0.21
0.31
0.06
-0.44
-1.02
-1.48
-1.65
-1.50
-1.07
-0.50
0.10
0.61
1.01
1.26
1.35
1.27
1.05
0.74
0.43
0.22
0.15
0.19
0.29
0.38
0.43
0.45
0.48
0.54
0.62
0.72
0.82
0.89
0.93
0.92
0.83
0.64
0.33
-0.07
-0.49
-0.86
-1.12
-1.22
-1.14
-0.89
-0.51
-0.09
0.29
0.54
0.59
0.45
0.19
-0.12
-0.38
-0.56
-0.66
-0.69
-0.66
-0.57
-0.40
-0.18
0.01
0.11
0.09
0.02
-0.02
0.06
0.24
0.45
0.53
0.42
0.15
-0.14
-0.26
-0.13
0.19
0.53
0.70
0.62
0.33
-0.06
-0.42
-0.68
-0.85
-0.94
-0.98
-0.92
-0.74
-0.43
-0.07
0.21
0.31
0.20
-0.05
-0.30
-0.44
-0.43
-0.27
-0.05
0.20
0.42
0.63
0.78
0.88
0.89
0.82
0.67
0.48
0.30
0.15
0.04
-0.03
-0.06
-0.09
-0.14
-0.22
-0.34
-0.43
-0.42
-0.25
0.05
0.40
0.70
0.84
0.81
0.62
0.33
-0.03
-0.45
-0.88
-1.24
-1.42
-1.30
-0.88
-0.27
0.33
0.73
0.83
0.67
0.41
0.17
0.03
-0.03
-0.10
-0.23
-0.41
-0.57
-0.61
-0.47
-0.19
0.14
0.41
0.55
0.55
0.46
0.36
0.31
0.31
0.37
0.42
0.46
0.48
0.46
0.40
0.30
0.17
0.04
-0.06
-0.12
-0.17
-0.26
-0.43
-0.68
-0.93
-1.06
-0.99
-0.68
-0.22
0.25
0.57
0.68
0.62
0.45
0.28
0.16
0.09
0.03
-0.01
-0.04
-0.03
0.03
0.14
0.26
0.35
0.38
0.31
0.12
-0.19
-0.60
-1.02
-1.33
-1.42
-1.25
-0.88
-0.42
-0.03
0.21
0.30
0.28
0.17
0.02
-0.17
-0.35
-0.46
-0.42
-0.22
0.11
0.45
0.67
0.72
0.60
0.40
0.24
0.15
0.11
0.08
0.02
-0.04
-0.05
0.05
0.26
0.50
0.65
0.65
0.49
0.28
0.13
0.13
0.24
0.36
0.38
0.23
-0.03
-0.31
-0.51
-0.56
-0.47
-0.28
-0.10
0.01
0.01
-0.10
-0.27
-0.42
-0.45
-0.32
-0.05
0.26
0.51
0.58
0.45
0.15
-0.22
-0.54
-0.73
-0.78
-0.70
-0.54
-0.37
-0.24
-0.15
-0.10
-0.07
-0.02
0.08
0.23
0.41
0.58
0.66
0.64
0.52
0.37
0.24
0.19
0.22
0.27
0.31
0.29
0.23
0.15
0.11
0.11
0.16
0.22
0.26
0.24
0.13
-0.08
-0.32
-0.53
-0.64
-0.62
-0.50
-0.37
-0.26
-0.18
-0.12
-0.03
0.09
0.23
0.33
0.38
0.37
0.34
0.33
0.38
0.46
0.53
0.55
0.47
0.27
-0.01
-0.26
-0.37
-0.24
0.12
0.61
1.01
1.13
0.86
0.27
-0.46
-1.09
-1.47
-1.53
-1.32
-0.98
-0.63
-0.35
-0.19
-0.13
-0.11
-0.10
-0.07
0.02
0.15
0.28
0.38
0.42
0.36
0.21
0.00
-0.22
-0.38
-0.43
-0.38
-0.25
-0.12
-0.06
-0.07
-0.13
-0.18
-0.15
-0.04
0.11
0.23
0.29
0.30
0.28
0.29
0.32
0.34
0.31
0.20
0.05
-0.08
-0.12
-0.01
0.25
0.58
0.88
1.04
1.00
0.76
0.40
-0.02
-0.40
-0.65
-0.74
-0.64
-0.38
-0.04
0.29
0.49
0.48
0.25
-0.14
-0.59
-0.97
-1.19
-1.22
-1.10
-0.91
-0.71
-0.53
-0.38
-0.21
-0.01
0.17
0.31
0.33
0.25
0.14
0.07
0.08
0.17
0.24
0.20
0.06
-0.13
-0.25
-0.23
-0.06
0.18
0.37
0.43
0.33
0.16
-0.01
-0.12
-0.16
-0.17
-0.18
-0.19
-0.16
-0.08
0.05
0.18
0.26
0.24
0.13
-0.01
-0.12
-0.16
-0.10
0.04
0.21
0.37
0.45
0.44
0.33
0.20
0.11
0.14
0.30
0.53
0.74
0.83
0.76
0.58
0.35
0.13
-0.02
-0.13
-0.24
-0.37
-0.53
-0.68
-0.76
-0.71
-0.56
-0.34
-0.13
-0.03
-0.06
-0.19
-0.34
-0.41
-0.33
-0.11
0.18
0.45
0.62
0.66
0.59
0.46
0.30
0.10
-0.13
-0.37
-0.54
-0.55
-0.34
0.06
0.49
0.80
0.86
0.65
0.30
-0.03
-0.24
-0.30
-0.26
-0.20
-0.15
-0.05
0.16
0.48
0.84
1.09
1.08
0.74
0.14
-0.53
-1.07
-1.31
-1.21
-0.88
-0.47
-0.14
0.03
0.05
-0.03
-0.17
-0.33
-0.50
-0.65
-0.76
-0.78
-0.67
-0.42
-0.10
0.24
0.49
0.60
0.57
0.43
0.21
-0.02
-0.20
-0.27
-0.22
-0.06
0.14
0.28
0.27
0.08
-0.23
-0.54
-0.71
-0.68
-0.45
-0.14
0.12
0.25
0.24
0.15
0.08
0.09
0.20
0.37
0.54
0.63
0.60
0.43
0.18
-0.08
-0.25
-0.30
-0.23
-0.11
-0.05
-0.08
-0.19
-0.27
-0.21
0.03
0.36
0.63
0.72
0.60
0.35
0.12
0.02
0.06
0.15
0.17
0.06
-0.15
-0.39
-0.56
-0.61
-0.56
-0.45
-0.32
-0.15
0.10
0.45
0.84
1.16
1.26
1.08
0.67
0.16
-0.26
-0.45
-0.38
-0.12
0.16
0.31
0.27
0.04
-0.25
-0.50
-0.60
-0.55
-0.40
-0.26
-0.19
-0.20
-0.25
-0.27
-0.23
-0.15
-0.06
0.03
0.14
0.27
0.43
0.55
0.55
0.38
0.04
-0.38
-0.75
-0.99
-1.03
-0.90
-0.68
-0.43
-0.22
-0.06
0.05
0.10
0.11
0.08
0.02
-0.04
-0.05
0.00
0.13
0.33
0.56
0.77
0.91
0.94
0.84
0.62
0.33
0.04
-0.19
-0.32
-0.36
-0.33
-0.27
-0.23
-0.18
-0.09
0.07
0.29
0.55
0.78
0.89
0.86
0.64
0.28
-0.16
-0.60
-0.97
-1.21
-1.28
-1.17
-0.91
-0.55
-0.16
0.16
0.36
0.41
0.34
0.22
0.09
-0.02
-0.10
-0.16
-0.20
-0.21
-0.18
-0.10
0.05
0.22
0.39
0.52
0.56
0.51
0.38
0.20
0.02
-0.14
-0.29
-0.43
-0.55
-0.62
-0.60
-0.47
-0.22
0.10
0.40
0.61
0.69
0.64
0.49
0.29
0.08
-0.15
-0.38
-0.58
-0.70
-0.70
-0.57
-0.33
-0.05
0.20
0.39
0.50
0.57
0.61
0.61
0.53
0.38
0.19
0.04
0.00
0.11
0.33
0.57
0.74
0.79
0.72
0.54
0.32
0.06
-0.19
-0.40
-0.55
-0.63
-0.66
-0.71
-0.81
-0.95
-1.07
-1.08
-0.91
-0.59
-0.23
0.07
0.23
0.27
0.28
0.34
0.51
0.76
1.04
1.29
1.48
1.54
1.43
1.14
0.65
0.05
-0.56
-1.05
-1.33
-1.36
-1.19
-0.91
-0.61
-0.36
-0.20
-0.13
-0.13
-0.17
-0.24
-0.33
-0.43
-0.53
-0.57
-0.54
-0.41
-0.21
0.00
0.17
0.24
0.25
0.24
0.25
0.30
0.36
0.39
0.38
0.32
0.25
0.17
0.13
0.10
0.10
0.14
0.23
0.35
0.47
0.56
0.58
0.57
0.54
0.50
0.45
0.35
0.17
-0.09
-0.38
-0.65
-0.84
-0.91
-0.87
-0.70
-0.43
-0.13
0.11
0.19
0.07
-0.21
-0.52
-0.69
-0.64
-0.37
-0.01
0.28
0.39
0.34
0.21
0.10
0.08
0.10
0.11
0.03
-0.12
-0.28
-0.37
-0.34
-0.21
-0.04
0.08
0.11
0.06
-0.03
-0.11
-0.15
-0.14
-0.11
-0.05
0.02
0.08
0.12
0.12
0.08
0.02
-0.04
-0.10
-0.14
-0.19
-0.24
-0.28
-0.26
-0.16
0.02
0.26
0.51
0.72
0.82
0.81
0.70
0.53
0.40
0.35
0.42
0.54
0.63
0.58
0.32
-0.08
-0.48
-0.73
-0.73
-0.52
-0.24
-0.05
-0.03
-0.15
-0.28
-0.32
-0.24
-0.10
-0.01
-0.05
-0.20
-0.31
-0.29
-0.09
0.23
0.50
0.57
0.38
0.01
-0.40
-0.68
-0.75
-0.65
-0.49
-0.37
-0.33
-0.30
-0.21
-0.01
0.26
0.49
0.54
0.41
0.17
-0.01
-0.01
0.18
0.47
0.70
0.78
0.70
0.53
0.37
0.27
0.19
0.06
-0.15
-0.45
-0.76
-0.97
-0.99
-0.77
-0.35
0.15
0.59
0.85
0.89
0.70
0.38
0.04
-0.22
-0.33
-0.29
-0.16
-0.04
-0.04
-0.18
-0.43
-0.66
-0.75
-0.61
-0.23
0.28
0.79
1.14
1.27
1.14
0.81
0.35
-0.17
-0.63
-0.93
-1.01
-0.88
-0.64
-0.43
-0.36
-0.48
-0.71
-0.90
-0.91
-0.70
-0.32
0.09
0.38
0.49
0.44
0.35
0.29
0.33
0.44
0.57
0.66
0.69
0.64
0.53
0.35
0.12
-0.10
-0.25
-0.29
-0.20
-0.02
0.17
0.33
0.40
0.39
0.30
0.16
-0.01
-0.19
-0.30
-0.32
-0.20
-0.01
0.16
0.20
0.05
-0.24
-0.56
-0.75
-0.73
-0.51
-0.21
0.05
0.20
0.25
0.28
0.38
0.55
0.72
0.80
0.71
0.49
0.24
0.05
-0.02
-0.01
0.00
-0.05
-0.17
-0.32
-0.43
-0.48
-0.45
-0.39
-0.31
-0.25
-0.19
-0.17
-0.19
-0.29
-0.46
-0.66
-0.79
-0.77
-0.57
-0.21
0.20
0.52
0.66
0.58
0.34
0.07
-0.13
-0.18
-0.10
0.02
0.12
0.15
0.13
0.10
0.13
0.19
0.25
0.28
0.26
0.27
0.38
0.63
0.92
1.13
1.09
0.75
0.20
-0.38
-0.81
-0.99
-0.96
-0.81
-0.65
-0.53
-0.43
-0.31
-0.17
-0.03
0.07
0.12
0.15
0.18
0.23
0.27
0.29
0.25
0.16
0.05
-0.05
-0.10
-0.10
-0.03
0.07
0.18
0.25
0.26
0.18
0.05
-0.13
-0.30
-0.45
-0.54
-0.53
-0.39
-0.11
0.26
0.59
0.76
0.69
0.41
0.05
-0.20
-0.24
-0.09
0.14
0.32
0.35
0.28
0.22
0.28
0.44
0.62
0.68
0.56
0.28
-0.02
-0.24
-0.32
-0.33
-0.39
-0.58
-0.88
-1.18
-1.32
-1.23
-0.94
-0.56
-0.24
-0.08
-0.07
-0.13
-0.17
-0.15
-0.06
0.06
0.16
0.23
0.29
0.37
0.49
0.63
0.76
0.81
0.76
0.61
0.39
0.18
0.02
-0.07
-0.10
-0.07
0.01
0.13
0.29
0.44
0.52
0.44
0.18
-0.23
-0.69
-1.05
-1.20
-1.10
-0.79
-0.37
0.05
0.38
0.58
0.60
0.45
0.17
-0.16
-0.42
-0.50
-0.37
-0.08
0.29
0.59
0.77
0.78
0.66
0.49
0.33
0.26
0.28
0.34
0.33
0.17
-0.19
-0.66
-1.10
-1.37
-1.37
-1.13
-0.76
-0.39
-0.11
0.04
0.05
-0.02
-0.14
-0.26
-0.33
-0.31
-0.20
-0.04
0.15
0.31
0.44
0.53
0.57
0.55
0.44
0.25
0.02
-0.18
-0.28
-0.27
-0.17
-0.03
0.12
0.27
0.38
0.45
0.43
0.29
0.06
-0.20
-0.41
-0.51
-0.51
-0.43
-0.33
-0.23
-0.13
-0.00
0.15
0.29
0.34
0.27
0.13
-0.01
-0.06
0.05
0.28
0.54
0.73
0.77
0.65
0.39
0.06
-0.30
-0.61
-0.84
-0.94
-0.89
-0.72
-0.48
-0.24
-0.04
0.07
0.10
0.03
-0.08
-0.21
-0.26
-0.16
0.09
0.43
0.72
0.82
0.67
0.33
-0.05
-0.28
-0.26
-0.01
0.33
0.64
0.81
0.82
0.68
0.45
0.14
-0.19
-0.47
-0.60
-0.51
-0.20
0.23
0.64
0.88
0.90
0.72
0.45
0.20
0.02
-0.10
-0.20
-0.30
-0.41
-0.50
-0.53
-0.49
-0.40
-0.27
-0.13
-0.02
0.01
-0.03
-0.14
-0.25
-0.33
-0.34
-0.32
-0.31
-0.35
-0.42
-0.43
-0.29
0.02
0.44
0.85
1.09
1.10
0.89
0.56
0.19
-0.12
-0.32
-0.39
-0.34
-0.23
-0.14
-0.17
-0.34
-0.57
-0.73
-0.69
-0.40
0.03
0.44
0.66
0.63
0.43
0.17
-0.07
-0.27
-0.45
-0.62
-0.72
-0.66
-0.36
0.13
0.65
0.98
0.98
0.66
0.19
-0.19
-0.34
-0.22
0.03
0.24
0.28
0.15
-0.05
-0.20
-0.21
-0.10
0.05
0.16
0.19
0.13
0.04
-0.03
-0.08
-0.13
-0.24
-0.44
-0.72
-1.01
-1.22
-1.24
-1.05
-0.71
-0.34
-0.06
0.09
0.14
0.19
0.32
0.52
0.73
0.81
0.69
0.39
0.05
-0.16
-0.15
0.07
0.38
0.63
0.72
0.68
0.61
0.62
0.73
0.86
0.89
0.76
0.47
0.13
-0.15
-0.30
-0.37
-0.43
-0.51
-0.60
-0.59
-0.40
-0.07
0.29
0.51
0.47
0.18
-0.25
-0.65
-0.86
-0.84
-0.60
-0.24
0.13
0.40
0.49
0.38
0.13
-0.20
-0.50
-0.67
-0.65
-0.48
-0.22
0.03
0.16
0.11
-0.08
-0.31
-0.43
-0.31
0.04
0.50
0.87
0.97
0.75
0.32
-0.13
-0.40
-0.40
-0.20
0.05
0.19
0.11
-0.13
-0.41
-0.57
-0.52
-0.25
0.12
0.44
0.55
0.41
0.10
-0.22
-0.41
-0.41
-0.26
-0.08
0.03
0.00
-0.13
-0.29
-0.41
-0.46
-0.43
-0.35
-0.26
-0.17
-0.09
-0.02
0.04
0.08
0.09
0.09
0.09
0.10
0.16
0.25
0.37
0.49
0.57
0.62
0.66
0.71
0.78
0.84
0.86
0.79
0.66
0.50
0.40
0.40
0.48
0.59
0.61
0.52
0.30
0.03
-0.23
-0.41
-0.51
-0.56
-0.56
-0.53
-0.47
-0.41
-0.38
-0.42
-0.53
-0.65
-0.69
-0.62
-0.48
-0.36
-0.38
-0.54
-0.75
-0.88
-0.79
-0.48
-0.09
0.21
0.29
0.14
-0.13
-0.37
-0.47
-0.38
-0.17
0.08
0.29
0.40
0.42
0.37
0.30
0.21
0.12
0.00
-0.14
-0.30
-0.43
-0.45
-0.31
0.01
0.42
0.80
1.01
1.02
0.85
0.60
0.38
0.20
0.04
-0.15
-0.38
-0.59
-0.66
-0.53
-0.21
0.17
0.44
0.45
0.22
-0.13
-0.42
-0.52
-0.40
-0.17
0.04
0.15
0.13
0.05
-0.03
-0.05
-0.01
0.04
0.09
0.10
0.08
0.02
-0.05
-0.07
0.01
0.20
0.48
0.75
0.90
0.88
0.71
0.50
0.35
0.31
0.32
0.31
0.18
-0.11
-0.48
-0.82
-0.99
-0.93
-0.67
-0.33
-0.02
0.14
0.15
0.07
0.00
-0.00
0.06
0.12
0.13
0.09
0.02
-0.01
0.05
0.16
0.27
0.33
0.28
0.18
0.06
-0.01
-0.02
0.02
0.05
0.06
0.03
-0.04
-0.14
-0.28
-0.47
-0.66
-0.81
-0.85
-0.74
-0.50
-0.19
0.11
0.34
0.48
0.56
0.62
0.66
0.62
0.48
0.23
-0.06
-0.26
-0.29
-0.14
0.08
0.22
0.17
-0.05
-0.31
-0.46
-0.38
-0.11
0.20
0.39
0.38
0.20
-0.02
-0.19
-0.28
-0.33
-0.43
-0.61
-0.77
-0.82
-0.66
-0.29
0.16
0.51
0.61
0.43
0.05
-0.35
-0.61
-0.65
-0.49
-0.20
0.09
0.32
0.45
0.50
0.47
0.38
0.24
0.07
-0.06
-0.08
0.05
0.32
0.65
0.94
1.09
1.04
0.77
0.36
-0.09
-0.46
-0.66
-0.64
-0.45
-0.17
0.08
0.23
0.22
0.09
-0.10
-0.31
-0.49
-0.63
-0.73
-0.77
-0.74
-0.63
-0.45
-0.25
-0.08
0.04
0.10
0.12
0.16
0.25
0.38
0.53
0.64
0.67
0.64
0.58
0.52
0.48
0.46
0.43
0.39
0.34
0.28
0.21
0.12
-0.03
-0.25
-0.48
-0.62
-0.59
-0.32
0.12
0.58
0.90
0.93
0.66
0.18
-0.35
-0.78
-1.02
-1.09
-1.02
-0.90
-0.76
-0.65
-0.59
-0.59
-0.67
-0.79
-0.93
-1.00
-0.94
-0.69
-0.28
0.19
0.60
0.83
0.84
0.67
0.43
0.26
0.22
0.31
0.48
0.68
0.86
1.03
1.17
1.24
1.16
0.86
0.35
-0.25
-0.75
-0.98
-0.89
-0.58
-0.22
0.03
0.10
0.04
-0.04
-0.07
-0.04
0.01
0.03
0.02
0.03
0.10
0.23
0.35
0.38
0.27
0.03
-0.26
-0.54
-0.77
-0.92
-0.95
-0.85
-0.60
-0.20
0.26
0.68
0.97
1.07
0.96
0.69
0.31
-0.11
-0.49
-0.75
-0.82
-0.72
-0.50
-0.26
-0.10
-0.01
0.04
0.12
0.25
0.36
0.34
0.12
-0.28
-0.75
-1.09
-1.19
-1.02
-0.65
-0.22
0.15
0.39
0.50
0.53
0.53
0.53
0.53
0.50
0.45
0.39
0.36
0.41
0.52
0.65
0.72
0.64
0.42
0.13
-0.12
-0.21
-0.11
0.11
0.34
0.45
0.40
0.19
-0.08
-0.32
-0.45
-0.43
-0.28
-0.04
0.21
0.38
0.42
0.32
0.11
-0.10
-0.22
-0.18
-0.02
0.19
0.34
0.36
0.21
-0.04
-0.32
-0.56
-0.71
-0.77
-0.73
-0.59
-0.34
-0.04
0.22
0.32
0.21
-0.12
-0.55
-0.89
-1.00
-0.82
-0.42
0.03
0.37
0.52
0.46
0.27
0.04
-0.20
-0.40
-0.54
-0.56
-0.44
-0.20
0.09
0.35
0.49
0.47
0.34
0.20
0.12
0.17
0.33
0.53
0.66
0.65
0.47
0.17
-0.13
-0.32
-0.36
-0.28
-0.18
-0.12
-0.12
-0.13
-0.10
-0.03
0.02
-0.04
-0.24
-0.49
-0.66
-0.60
-0.28
0.20
0.65
0.90
0.91
0.74
0.50
0.34
0.27
0.27
0.26
0.18
0.05
-0.08
-0.14
-0.13
-0.06
0.02
0.08
0.14
0.22
0.33
0.43
0.45
0.34
0.10
-0.20
-0.43
-0.51
-0.42
-0.26
-0.13
-0.14
-0.26
-0.42
-0.53
-0.52
-0.41
-0.26
-0.11
-0.03
-0.03
-0.09
-0.21
-0.34
-0.43
-0.41
-0.23
0.08
0.45
0.74
0.90
0.91
0.83
0.72
0.64
0.55
0.42
0.21
-0.05
-0.29
-0.40
-0.33
-0.11
0.14
0.29
0.22
-0.05
-0.41
-0.70
-0.79
-0.67
-0.39
-0.13
-0.02
-0.11
-0.36
-0.64
-0.82
-0.86
-0.78
-0.65
-0.56
-0.52
-0.48
-0.36
-0.12
0.21
0.53
0.72
0.73
0.58
0.37
0.19
0.08
0.02
-0.00
0.00
0.08
0.27
0.56
0.89
1.12
1.15
0.93
0.53
0.06
-0.36
-0.63
-0.69
-0.55
-0.26
0.12
0.46
0.64
0.58
0.29
-0.14
-0.55
-0.80
-0.82
-0.63
-0.33
-0.02
0.18
0.24
0.15
-0.03
-0.22
-0.33
-0.31
-0.15
0.11
0.38
0.58
0.65
0.61
0.50
0.38
0.31
0.31
0.36
0.44
0.49
0.45
0.28
0.00
-0.34
-0.64
-0.79
-0.76
-0.58
-0.36
-0.23
-0.23
-0.36
-0.52
-0.60
-0.54
-0.36
-0.12
0.09
0.21
0.24
0.21
0.12
0.02
-0.09
-0.17
-0.20
-0.17
-0.09
-0.00
0.03
-0.00
-0.09
-0.20
-0.27
-0.29
-0.27
-0.22
-0.11
0.09
0.37
0.69
0.95
1.02
0.86
0.51
0.09
-0.25
-0.43
-0.42
-0.30
-0.15
-0.03
0.06
0.11
0.18
0.28
0.38
0.44
0.42
0.29
0.11
-0.06
-0.16
-0.20
-0.21
-0.24
-0.32
-0.41
-0.42
-0.30
-0.03
0.32
0.64
0.84
0.89
0.79
0.58
0.31
0.01
-0.26
-0.46
-0.56
-0.56
-0.52
-0.52
-0.57
-0.65
-0.67
-0.54
-0.27
0.08
0.37
0.51
0.51
0.43
0.34
0.27
0.16
-0.03
-0.30
-0.52
-0.53
-0.25
0.24
0.71
0.93
0.79
0.36
-0.13
-0.48
-0.56
-0.40
-0.12
0.13
0.29
0.36
0.34
0.24
0.06
-0.20
-0.51
-0.76
-0.88
-0.83
-0.62
-0.34
-0.09
0.07
0.14
0.17
0.24
0.38
0.58
0.78
0.86
0.79
0.54
0.19
-0.18
-0.49
-0.67
-0.71
-0.59
-0.36
-0.08
0.16
0.28
0.24
0.08
-0.14
-0.30
-0.33
-0.21
0.00
0.20
0.31
0.30
0.19
0.06
-0.02
-0.03
0.01
0.05
0.04
-0.01
-0.05
-0.06
-0.02
0.04
0.07
0.03
-0.06
-0.14
-0.19
-0.20
-0.22
-0.28
-0.39
-0.53
-0.65
-0.72
-0.75
-0.75
-0.71
-0.61
-0.43
-0.15
0.17
0.47
0.65
0.68
0.53
0.30
0.09
0.01
0.10
0.33
0.57
0.71
0.67
0.49
0.28
0.16
0.20
0.42
0.70
0.95
1.06
0.98
0.75
0.43
0.08
-0.22
-0.43
-0.54
-0.57
-0.56
-0.56
-0.59
-0.61
-0.60
-0.53
-0.39
-0.20
0.01
0.18
0.29
0.29
0.22
0.11
0.02
-0.04
-0.08
-0.14
-0.23
-0.37
-0.49
-0.54
-0.50
-0.36
-0.16
0.06
0.25
0.40
0.48
0.48
0.39
0.25
0.10
-0.01
-0.07
-0.08
-0.06
-0.01
0.08
0.22
0.40
0.54
0.59
0.52
0.35
0.19
0.09
0.10
0.13
0.10
-0.08
-0.39
-0.73
-1.00
-1.12
-1.08
-0.93
-0.73
-0.52
-0.28
-0.01
0.29
0.56
0.72
0.72
0.58
0.36
0.18
0.11
0.17
0.31
0.43
0.45
0.35
0.14
-0.14
-0.42
-0.64
-0.74
-0.66
-0.40
0.00
0.43
0.73
0.83
0.70
0.46
0.25
0.16
0.19
0.25
0.24
0.11
-0.09
-0.26
-0.34
-0.33
-0.29
-0.29
-0.33
-0.39
-0.39
-0.31
-0.14
0.07
0.23
0.31
0.30
0.23
0.13
0.06
0.02
-0.00
-0.04
-0.12
-0.18
-0.17
-0.01
0.30
0.67
0.94
0.96
0.71
0.25
-0.24
-0.62
-0.78
-0.76
-0.61
-0.41
-0.20
-0.02
0.12
0.18
0.13
-0.06
-0.30
-0.51
-0.59
-0.48
-0.21
0.12
0.42
0.61
0.65
0.54
0.33
0.06
-0.20
-0.42
-0.55
-0.59
-0.56
-0.50
-0.43
-0.39
-0.36
-0.31
-0.20
-0.01
0.23
0.44
0.56
0.55
0.42
0.22
0.06
-0.02
0.01
0.13
0.28
0.43
0.54
0.60
0.56
0.44
0.22
-0.07
-0.37
-0.61
-0.75
-0.78
-0.69
-0.51
-0.28
-0.01
0.28
0.54
0.70
0.71
0.54
0.24
-0.07
-0.25
-0.22
0.00
0.28
0.45
0.37
0.06
-0.39
-0.77
-0.93
-0.82
-0.51
-0.15
0.10
0.18
0.13
0.07
0.06
0.13
0.23
0.24
0.11
-0.17
-0.49
-0.73
-0.79
-0.65
-0.38
-0.08
0.15
0.27
0.29
0.31
0.38
0.54
0.75
0.94
1.03
1.00
0.85
0.60
0.23
-0.22
-0.72
-1.13
-1.33
-1.22
-0.83
-0.29
0.17
0.40
0.35
0.10
-0.20
-0.42
-0.53
-0.57
-0.59
-0.59
-0.52
-0.30
0.08
0.56
1.01
1.29
1.30
1.08
0.74
0.44
0.30
0.35
0.48
0.55
0.42
0.06
-0.42
-0.88
-1.16
-1.16
-0.90
-0.48
-0.01
0.38
0.60
0.62
0.41
0.05
-0.37
-0.71
-0.90
-0.92
-0.82
-0.66
-0.49
-0.32
-0.12
0.10
0.27
0.37
0.37
0.34
0.38
0.52
0.74
0.91
0.90
0.66
0.26
-0.15
-0.41
-0.47
-0.36
-0.22
-0.15
-0.17
-0.23
-0.21
-0.08
0.16
0.42
0.60
0.63
0.53
0.36
0.21
0.11
0.08
0.08
0.09
0.07
0.03
-0.03
-0.08
-0.07
0.02
0.20
0.40
0.52
0.46
0.19
-0.21
-0.61
-0.84
-0.83
-0.61
-0.30
-0.02
0.13
0.16
0.12
0.07
0.06
0.09
0.16
0.26
0.38
0.50
0.58
0.57
0.44
0.20
-0.12
-0.45
-0.71
-0.84
-0.84
-0.70
-0.49
-0.27
-0.12
-0.08
-0.13
-0.23
-0.29
-0.25
-0.12
0.01
0.02
-0.16
-0.47
-0.76
-0.88
-0.73
-0.35
0.11
0.50
0.71
0.77
0.74
0.71
0.70
0.68
0.59
0.41
0.19
-0.00
-0.14
-0.20
-0.25
-0.31
-0.43
-0.58
-0.71
-0.77
-0.75
-0.65
-0.50
-0.33
-0.15
0.06
0.31
0.56
0.79
0.93
0.98
0.94
0.86
0.74
0.61
0.42
0.16
-0.17
-0.50
-0.73
-0.76
-0.57
-0.23
0.14
0.39
0.48
0.43
0.35
0.35
0.46
0.64
0.78
0.79
0.60
0.25
-0.17
-0.56
-0.83
-0.96
-0.95
-0.83
-0.66
-0.48
-0.32
-0.21
-0.14
-0.10
-0.06
-0.01
0.02
0.02
-0.02
-0.08
-0.14
-0.19
-0.23
-0.25
-0.26
-0.23
-0.17
-0.08
-0.01
-0.01
-0.08
-0.18
-0.23
-0.16
0.03
0.30
0.53
0.64
0.60
0.43
0.21
-0.02
-0.23
-0.40
-0.53
-0.59
-0.56
-0.41
-0.17
0.08
0.24
0.27
0.18
0.06
0.03
0.16
0.43
0.76
1.03
1.15
1.10
0.91
0.64
0.36
0.10
-0.13
-0.28
-0.34
-0.29
-0.16
-0.01
0.06
-0.00
-0.20
-0.44
-0.63
-0.69
-0.64
-0.55
-0.48
-0.45
-0.40
-0.26
-0.01
0.30
0.54
0.61
0.49
0.26
0.05
-0.05
-0.03
0.07
0.14
0.11
-0.02
-0.19
-0.31
-0.32
-0.17
0.10
0.44
0.76
0.99
1.08
1.01
0.77
0.44
0.08
-0.20
-0.35
-0.34
-0.22
-0.09
-0.03
-0.07
-0.16
-0.22
-0.18
-0.04
0.14
0.29
0.35
0.31
0.13
-0.20
-0.71
-1.34
-1.94
-2.32
-2.33
-1.93
-1.23
-0.45
0.18
0.56
0.70
0.70
0.68
0.68
0.68
0.63
0.52
0.37
0.23
0.17
0.25
0.45
0.68
0.85
0.84
0.65
0.32
0.02
-0.13
-0.07
0.14
0.34
0.39
0.23
-0.03
-0.24
-0.25
-0.02
0.35
0.68
0.77
0.54
0.01
-0.66
-1.26
-1.61
-1.63
-1.35
-0.90
-0.44
-0.08
0.10
0.11
0.02
-0.09
-0.13
-0.07
0.09
0.32
0.54
0.69
0.75
0.73
0.67
0.60
0.53
0.44
0.32
0.21
0.15
0.17
0.23
0.24
0.08
-0.26
-0.68
-1.00
-1.07
-0.82
-0.35
0.19
0.60
0.80
0.78
0.60
0.34
0.06
-0.20
-0.41
-0.56
-0.61
-0.57
-0.44
-0.24
-0.02
0.17
0.30
0.34
0.29
0.20
0.11
0.03
-0.02
-0.07
-0.14
-0.24
-0.37
-0.49
-0.59
-0.62
-0.57
-0.40
-0.14
0.15
0.36
0.41
0.27
-0.02
-0.34
-0.56
-0.60
-0.44
-0.13
0.21
0.47
0.60
0.57
0.43
0.26
0.14
0.12
0.21
0.35
0.45
0.43
0.26
0.00
-0.23
-0.32
-0.22
0.03
0.33
0.55
0.62
0.53
0.36
0.16
-0.06
-0.31
-0.59
-0.85
-0.98
-0.92
-0.68
-0.33
-0.03
0.12
0.08
-0.10
-0.36
-0.60
-0.79
-0.88
-0.84
-0.68
-0.42
-0.14
0.08
0.19
0.21
0.18
0.15
0.15
0.17
0.20
0.26
0.39
0.59
0.80
0.94
0.93
0.76
0.51
0.31
0.22
0.23
0.24
0.15
-0.04
-0.26
-0.37
-0.29
-0.03
0.31
0.58
0.69
0.62
0.46
0.29
0.20
0.18
0.20
0.19
0.13
0.05
0.00
0.05
0.17
0.29
0.34
0.25
0.04
-0.19
-0.37
-0.48
-0.52
-0.53
-0.51
-0.43
-0.25
0.05
0.38
0.64
0.74
0.65
0.38
0.02
-0.32
-0.60
-0.76
-0.82
-0.78
-0.68
-0.56
-0.46
-0.39
-0.33
-0.25
-0.14
-0.01
0.09
0.12
0.09
0.00
-0.08
-0.14
-0.19
-0.24
-0.27
-0.27
-0.20
-0.07
0.08
0.23
0.34
0.42
0.52
0.62
0.71
0.70
0.56
0.29
-0.02
-0.25
-0.34
-0.27
-0.10
0.08
0.20
0.23
0.17
0.05
-0.05
-0.09
-0.03
0.11
0.28
0.41
0.43
0.33
0.13
-0.08
-0.24
-0.31
-0.30
-0.22
-0.12
-0.04
0.02
0.04
0.02
-0.03
-0.07
-0.08
-0.04
0.04
0.11
0.12
-0.00
-0.23
-0.50
-0.71
-0.74
-0.55
-0.18
0.24
0.58
0.73
0.67
0.45
0.15
-0.15
-0.40
-0.59
-0.69
-0.71
-0.65
-0.51
-0.33
-0.13
0.04
0.16
0.21
0.18
0.08
-0.10
-0.31
-0.52
-0.68
-0.70
-0.55
-0.23
0.19
0.61
0.89
0.94
0.77
0.46
0.15
-0.03
-0.00
0.21
0.49
0.74
0.85
0.81
0.63
0.38
0.12
-0.14
-0.37
-0.56
-0.70
-0.77
-0.74
-0.58
-0.34
-0.05
0.20
0.36
0.40
0.32
0.16
-0.05
-0.24
-0.37
-0.41
-0.38
-0.27
-0.12
0.03
0.16
0.25
0.29
0.29
0.27
0.20
0.12
0.02
-0.05
-0.05
0.03
0.19
0.36
0.50
0.53
0.44
0.25
-0.01
-0.27
-0.47
-0.61
-0.67
-0.67
-0.63
-0.54
-0.43
-0.31
-0.21
-0.15
-0.12
-0.13
-0.12
-0.05
0.09
0.29
0.50
0.65
0.68
0.60
0.45
0.30
0.17
0.10
0.04
-0.01
-0.08
-0.13
-0.13
-0.08
0.02
0.10
0.11
0.02
-0.15
-0.33
-0.43
-0.36
-0.11
0.26
0.61
0.82
0.78
0.51
0.10
-0.30
-0.53
-0.50
-0.26
0.08
0.36
0.48
0.39
0.17
-0.09
-0.28
-0.33
-0.24
-0.07
0.13
0.33
0.46
0.49
0.39
0.13
-0.25
-0.66
-0.98
-1.12
-1.06
-0.86
-0.60
-0.37
-0.21
-0.10
-0.05
-0.03
-0.02
-0.03
-0.04
-0.03
0.01
0.08
0.16
0.23
0.31
0.40
0.52
0.64
0.74
0.76
0.67
0.48
0.24
0.00
-0.16
-0.22
-0.17
-0.03
0.17
0.38
0.59
0.72
0.70
0.50
0.12
-0.35
-0.73
-0.87
-0.70
-0.27
0.26
0.65
0.76
0.55
0.11
-0.39
-0.77
-0.92
-0.84
-0.61
-0.34
-0.10
0.06
0.15
0.23
0.30
0.37
0.41
0.38
0.30
0.19
0.08
-0.02
-0.13
-0.30
-0.54
-0.80
-0.98
-0.97
-0.70
-0.22
0.32
0.74
0.91
0.81
0.55
0.26
0.05
-0.02
-0.00
0.04
0.04
-0.02
-0.12
-0.22
-0.26
-0.21
-0.08
0.06
0.17
0.19
0.13
0.01
-0.13
-0.26
-0.35
-0.41
-0.43
-0.40
-0.31
-0.18
-0.06
0.01
0.01
0.00
0.03
0.15
0.35
0.54
0.62
0.55
0.34
0.11
-0.06
-0.10
-0.04
0.07
0.16
0.19
0.17
0.10
-0.02
-0.19
-0.39
-0.58
-0.67
-0.61
-0.39
-0.05
0.33
0.64
0.79
0.76
0.54
0.21
-0.17
-0.50
-0.69
-0.74
-0.68
-0.56
-0.43
-0.29
-0.14
0.05
0.25
0.42
0.50
0.47
0.35
0.19
0.08
0.04
0.10
0.21
0.32
0.38
0.38
0.33
0.25
0.17
0.11
0.07
0.04
-0.03
-0.16
-0.34
-0.56
-0.75
-0.85
-0.82
-0.66
-0.41
-0.17
-0.02
0.03
0.02
0.04
0.14
0.31
0.45
0.46
0.28
-0.03
-0.37
-0.57
-0.56
-0.36
-0.06
0.21
0.38
0.46
0.49
0.53
0.60
0.69
0.73
0.72
0.67
0.59
0.53
0.48
0.43
0.33
0.17
-0.06
-0.31
-0.56
-0.76
-0.86
-0.86
-0.75
-0.59
-0.43
-0.32
-0.25
-0.20
-0.10
0.07
0.27
0.43
0.48
0.38
0.16
-0.07
-0.25
-0.29
-0.23
-0.10
0.04
0.13
0.19
0.24
0.32
0.45
0.58
0.66
0.63
0.46
0.20
-0.07
-0.25
-0.29
-0.19
-0.03
0.12
0.19
0.17
0.06
-0.11
-0.31
-0.53
-0.76
-0.94
-1.00
-0.89
-0.63
-0.28
0.03
0.19
0.16
-0.02
-0.24
-0.38
-0.37
-0.25
-0.07
0.10
0.22
0.28
0.34
0.42
0.50
0.54
0.48
0.30
0.04
-0.23
-0.43
-0.53
-0.53
-0.46
-0.36
-0.29
-0.26
-0.28
-0.35
-0.44
-0.51
-0.52
-0.42
-0.22
0.03
0.25
0.40
0.49
0.54
0.61
0.72
0.83
0.87
0.80
0.62
0.41
0.26
0.21
0.27
0.40
0.53
0.61
0.61
0.53
0.40
0.26
0.12
0.00
-0.12
-0.28
-0.45
-0.58
-0.60
-0.46
-0.20
0.04
0.13
-0.04
-0.44
-0.89
-1.19
-1.19
-0.87
-0.35
0.20
0.67
1.01
1.22
1.28
1.15
0.79
0.21
-0.45
-1.00
-1.25
-1.14
-0.77
-0.32
-0.01
0.09
0.04
-0.01
0.08
0.34
0.69
0.97
1.05
0.85
0.44
-0.08
-0.55
-0.86
-0.97
-0.88
-0.70
-0.50
-0.34
-0.23
-0.12
0.04
0.23
0.40
0.46
0.36
0.10
-0.21
-0.44
-0.50
-0.41
-0.23
-0.04
0.14
0.30
0.45
0.60
0.68
0.66
0.51
0.25
-0.04
-0.25
-0.33
-0.27
-0.10
0.09
0.22
0.24
0.15
-0.01
-0.19
-0.33
-0.37
-0.32
-0.19
-0.04
0.06
0.05
-0.09
-0.29
-0.45
-0.46
-0.29
0.02
0.32
0.48
0.43
0.23
-0.01
-0.17
-0.23
-0.24
-0.27
-0.34
-0.40
-0.36
-0.15
0.16
0.47
0.64
0.59
0.38
0.13
-0.03
-0.03
0.12
0.33
0.52
0.62
0.63
0.54
0.38
0.16
-0.07
-0.26
-0.37
-0.39
-0.35
-0.30
-0.27
-0.27
-0.26
-0.23
-0.16
-0.10
-0.06
-0.06
-0.07
-0.07
-0.05
-0.03
-0.08
-0.21
-0.42
-0.59
-0.61
-0.38
0.06
0.57
0.97
1.10
0.93
0.55
0.13
-0.17
-0.27
-0.19
-0.06
0.04
0.04
-0.06
-0.18
-0.27
-0.28
-0.22
-0.12
-0.04
-0.01
-0.03
-0.03
0.05
0.26
0.54
0.78
0.85
0.67
0.30
-0.11
-0.39
-0.44
-0.27
-0.01
0.22
0.33
0.32
0.23
0.12
-0.02
-0.18
-0.38
-0.55
-0.63
-0.61
-0.51
-0.42
-0.43
-0.53
-0.67
-0.74
-0.67
-0.47
-0.25
-0.11
-0.11
-0.24
-0.41
-0.52
-0.50
-0.36
-0.15
0.04
0.16
0.17
0.09
-0.02
-0.13
-0.18
-0.13
0.02
0.25
0.52
0.77
0.90
0.88
0.72
0.48
0.23
0.06
-0.01
0.03
0.13
0.25
0.37
0.48
0.59
0.69
0.73
0.68
0.55
0.32
0.06
-0.20
-0.41
-0.57
-0.66
-0.71
-0.72
-0.67
-0.53
-0.29
0.03
0.34
0.54
0.54
0.32
0.01
-0.23
-0.26
-0.04
0.35
0.73
0.89
0.74
0.34
-0.17
-0.60
-0.80
-0.77
-0.55
-0.25
0.04
0.25
0.37
0.37
0.23
0.01
-0.18
-0.23
-0.05
0.35
0.81
1.11
1.10
0.77
0.26
-0.18
-0.36
-0.26
0.02
0.28
0.38
0.27
0.04
-0.19
-0.35
-0.41
-0.45
-0.52
-0.64
-0.81
-0.95
-1.00
-0.93
-0.74
-0.48
-0.21
0.01
0.13
0.13
0.02
-0.12
-0.21
-0.18
0.00
0.27
0.51
0.60
0.48
0.17
-0.18
-0.45
-0.51
-0.34
-0.03
0.34
0.66
0.87
0.96
0.94
0.84
0.67
0.46
0.25
0.07
-0.08
-0.22
-0.34
-0.47
-0.58
-0.65
-0.65
-0.59
-0.50
-0.48
-0.54
-0.67
-0.78
-0.75
-0.54
-0.18
0.21
0.49
0.56
0.44
0.22
0.03
-0.01
0.09
0.30
0.51
0.64
0.67
0.62
0.57
0.57
0.65
0.72
0.67
0.42
-0.03
-0.57
-1.00
-1.17
-1.02
-0.62
-0.15
0.20
0.32
0.19
-0.09
-0.41
-0.66
-0.79
-0.82
-0.78
-0.69
-0.58
-0.47
-0.36
-0.26
-0.18
-0.14
-0.08
0.04
0.23
0.49
0.76
0.97
1.04
0.99
0.83
0.62
0.40
0.19
-0.01
-0.16
-0.23
-0.19
-0.05
0.14
0.29
0.32
0.20
-0.03
-0.26
-0.41
-0.42
-0.29
-0.10
0.06
0.12
0.05
-0.07
-0.16
-0.13
0.04
0.30
0.53
0.62
0.50
0.20
-0.18
-0.50
-0.67
-0.63
-0.45
-0.21
-0.03
0.06
0.07
0.03
0.03
0.07
0.15
0.22
0.26
0.25
0.21
0.14
0.06
-0.04
-0.12
-0.17
-0.14
-0.03
0.15
0.34
0.51
0.64
0.72
0.73
0.65
0.45
0.15
-0.20
-0.52
-0.74
-0.82
-0.74
-0.50
-0.13
0.34
0.82
1.17
1.24
0.92
0.27
-0.55
-1.26
-1.61
-1.50
-1.01
-0.35
0.25
0.61
0.69
0.54
0.26
-0.04
-0.30
-0.48
-0.57
-0.53
-0.37
-0.13
0.13
0.33
0.43
0.41
0.30
0.12
-0.09
-0.30
-0.47
-0.54
-0.46
-0.25
0.02
0.25
0.34
0.27
0.08
-0.10
-0.17
-0.10
0.10
0.35
0.54
0.62
0.58
0.46
0.30
0.13
-0.04
-0.24
-0.48
-0.72
-0.92
-1.03
-0.98
-0.77
-0.42
-0.00
0.39
0.66
0.77
0.72
0.57
0.41
0.31
0.27
0.25
0.17
-0.02
-0.28
-0.52
-0.59
-0.43
-0.11
0.24
0.48
0.50
0.33
0.03
-0.26
-0.45
-0.50
-0.41
-0.20
0.07
0.34
0.51
0.54
0.41
0.18
-0.04
-0.14
-0.08
0.12
0.35
0.52
0.56
0.45
0.26
0.07
-0.07
-0.13
-0.12
-0.10
-0.11
-0.17
-0.26
-0.35
-0.41
-0.46
-0.48
-0.47
-0.41
-0.28
-0.09
0.11
0.23
0.22
0.09
-0.09
-0.17
-0.05
0.24
0.60
0.82
0.77
0.40
-0.19
-0.80
-1.27
-1.46
-1.38
-1.07
-0.63
-0.18
0.18
0.40
0.42
0.28
0.07
-0.10
-0.14
-0.00
0.26
0.55
0.77
0.84
0.76
0.59
0.38
0.17
0.02
-0.05
-0.01
0.16
0.43
0.74
0.97
1.01
0.83
0.48
0.08
-0.22
-0.35
-0.32
-0.21
-0.10
-0.04
-0.02
-0.04
-0.09
-0.21
-0.44
-0.78
-1.13
-1.37
-1.39
-1.17
-0.78
-0.35
0.01
0.26
0.40
0.47
0.49
0.46
0.37
0.23
0.09
0.02
0.05
0.18
0.37
0.55
0.67
0.72
0.69
0.59
0.42
0.20
-0.06
-0.28
-0.37
-0.28
-0.04
0.24
0.40
0.31
-0.02
-0.47
-0.85
-0.99
-0.84
-0.49
-0.11
0.12
0.12
-0.08
-0.37
-0.62
-0.71
-0.61
-0.36
-0.06
0.22
0.41
0.49
0.47
0.40
0.28
0.14
-0.00
-0.11
-0.14
-0.08
0.07
0.27
0.44
0.52
0.51
0.40
0.23
0.06
-0.09
-0.19
-0.21
-0.16
-0.06
0.04
0.08
0.04
-0.11
-0.33
-0.56
-0.74
-0.83
-0.81
-0.69
-0.50
-0.27
-0.01
0.24
0.45
0.60
0.66
0.63
0.50
0.29
0.04
-0.21
-0.36
-0.37
-0.21
0.04
0.29
0.45
0.47
0.38
0.26
0.20
0.20
0.22
0.19
0.07
-0.09
-0.24
-0.29
-0.25
-0.18
-0.15
-0.23
-0.41
-0.59
-0.64
-0.47
-0.08
0.42
0.88
1.14
1.15
0.94
0.62
0.30
0.05
-0.08
-0.13
-0.12
-0.08
-0.02
0.06
0.13
0.19
0.23
0.27
0.30
0.32
0.30
0.24
0.13
-0.01
-0.18
-0.37
-0.56
-0.71
-0.79
-0.76
-0.62
-0.40
-0.15
0.05
0.16
0.17
0.11
0.05
0.04
0.10
0.24
0.38
0.45
0.45
0.38
0.32
0.31
0.33
0.31
0.15
-0.20
-0.67
-1.11
-1.37
-1.35
-1.10
-0.76
-0.49
-0.36
-0.35
-0.38
-0.37
-0.33
-0.27
-0.24
-0.22
-0.19
-0.14
-0.05
0.03
0.09
0.14
0.24
0.41
0.67
0.95
1.21
1.38
1.46
1.41
1.25
0.96
0.55
0.08
-0.35
-0.70
-0.90
-0.97
-0.93
-0.81
-0.62
-0.39
-0.14
0.10
0.31
0.48
0.62
0.71
0.73
0.65
0.46
0.22
0.03
-0.03
0.09
0.31
0.53
0.63
0.59
0.46
0.33
0.27
0.28
0.32
0.31
0.23
0.10
-0.04
-0.15
-0.27
-0.43
-0.69
-1.04
-1.41
-1.66
-1.70
-1.53
-1.22
-0.86
-0.54
-0.29
-0.09
0.09
0.26
0.40
0.46
0.39
0.22
-0.01
-0.21
-0.28
-0.20
0.01
0.26
0.45
0.51
0.42
0.24
0.07
0.01
0.12
0.33
0.55
0.69
0.70
0.58
0.40
0.19
-0.00
-0.14
-0.17
-0.06
0.20
0.53
0.81
0.87
0.65
0.20
-0.35
-0.79
-0.97
-0.87
-0.57
-0.23
-0.01
0.00
-0.18
-0.47
-0.75
-0.90
-0.85
-0.63
-0.32
-0.01
0.24
0.41
0.54
0.63
0.68
0.66
0.54
0.37
0.21
0.13
0.12
0.15
0.10
-0.08
-0.38
-0.71
-0.92
-0.90
-0.64
-0.19
0.30
0.67
0.82
0.67
0.27
-0.28
-0.83
-1.23
-1.42
-1.36
-1.11
-0.75
-0.34
0.06
0.41
0.68
0.80
0.71
0.42
0.00
-0.41
-0.67
-0.64
-0.32
0.22
0.82
1.28
1.48
1.34
0.94
0.40
-0.09
-0.39
-0.46
-0.33
-0.11
0.08
0.18
0.21
0.24
0.30
0.41
0.50
0.54
0.47
0.35
0.22
0.18
0.25
0.46
0.74
1.05
1.28
1.36
1.21
0.82
0.23
-0.46
-1.11
-1.62
-1.90
-1.97
-1.85
-1.60
-1.27
-0.88
-0.49
-0.17
0.01
-0.01
-0.20
-0.50
-0.77
-0.91
-0.86
-0.65
-0.37
-0.09
0.14
0.31
0.49
0.67
0.83
0.90
0.82
0.58
0.25
-0.05
-0.18
-0.11
0.10
0.33
0.45
0.39
0.20
-0.02
-0.17
-0.20
-0.14
-0.04
0.06
0.15
0.28
0.42
0.53
0.53
0.41
0.20
0.03
0.01
0.20
0.55
0.97
1.30
1.45
1.40
1.20
0.91
0.64
0.46
0.40
0.45
0.57
0.67
0.64
0.41
-0.05
-0.68
-1.40
-2.07
-2.58
-2.85
-2.83
-2.53
-2.01
-1.40
-0.82
-0.40
-0.19
-0.16
-0.24
-0.31
-0.33
-0.30
-0.25
-0.22
-0.20
-0.13
0.03
0.29
0.62
0.90
1.07
1.11
1.07
1.01
0.98
0.96
0.89
0.74
0.49
0.21
-0.06
-0.25
-0.35
-0.34
-0.25
-0.09
0.11
0.31
0.45
0.51
0.48
0.39
0.30
0.23
0.17
0.09
-0.02
-0.11
-0.15
-0.08
0.06
0.24
0.35
0.37
0.29
0.17
0.07
0.01
0.01
0.05
0.13
0.21
0.25
0.17
-0.10
-0.56
-1.11
-1.59
-1.83
-1.73
-1.32
-0.74
-0.16
0.25
0.46
0.52
0.52
0.52
0.52
0.41
0.15
-0.27
-0.75
-1.09
-1.15
-0.90
-0.41
0.10
0.48
0.61
0.51
0.26
-0.03
-0.30
-0.46
-0.47
-0.30
0.05
0.47
0.82
0.96
0.83
0.46
0.00
-0.40
-0.62
-0.61
-0.42
-0.10
0.26
0.62
0.92
1.09
1.08
0.85
0.49
0.10
-0.16
-0.21
-0.05
0.20
0.39
0.39
0.20
-0.14
-0.49
-0.74
-0.83
-0.75
-0.51
-0.18
0.19
0.50
0.67
0.64
0.40
0.04
-0.33
-0.60
-0.69
-0.59
-0.38
-0.15
0.02
0.08
0.05
-0.03
-0.10
-0.14
-0.15
-0.15
-0.16
-0.16
-0.14
-0.09
-0.05
-0.03
-0.07
-0.15
-0.23
-0.22
-0.08
0.18
0.49
0.73
0.79
0.64
0.34
0.02
-0.21
-0.24
-0.10
0.12
0.31
0.38
0.30
0.14
-0.02
-0.10
-0.08
0.01
0.13
0.23
0.29
0.28
0.20
0.07
-0.08
-0.21
-0.23
-0.16
-0.02
0.08
0.08
-0.03
-0.18
-0.27
-0.20
-0.01
0.25
0.45
0.54
0.51
0.40
0.23
0.03
-0.19
-0.40
-0.54
-0.58
-0.53
-0.47
-0.51
-0.67
-0.91
-1.09
-1.11
-0.93
-0.61
-0.28
-0.08
-0.01
-0.03
-0.00
0.12
0.32
0.52
0.60
0.54
0.38
0.24
0.22
0.34
0.56
0.74
0.80
0.68
0.43
0.12
-0.19
-0.44
-0.61
-0.69
-0.66
-0.49
-0.21
0.11
0.40
0.60
0.69
0.69
0.64
0.54
0.41
0.25
0.08
-0.05
-0.10
-0.06
0.06
0.22
0.34
0.41
0.41
0.37
0.34
0.37
0.46
0.61
0.76
0.84
0.79
0.60
0.24
-0.25
-0.82
-1.38
-1.82
-2.05
-2.00
-1.67
-1.14
-0.53
0.03
0.43
0.63
0.66
0.55
0.35
0.10
-0.16
-0.38
-0.49
-0.50
-0.45
-0.41
-0.47
-0.62
-0.83
-0.96
-0.94
-0.73
-0.39
-0.04
0.23
0.39
0.45
0.46
0.45
0.46
0.46
0.45
0.43
0.42
0.44
0.48
0.53
0.56
0.55
0.47
0.34
0.20
0.11
0.11
0.20
0.40
0.64
0.85
0.96
0.90
0.66
0.30
-0.10
-0.42
-0.56
-0.50
-0.26
0.05
0.34
0.53
0.62
0.61
0.56
0.49
0.43
0.36
0.25
0.06
-0.20
-0.53
-0.86
-1.14
-1.30
-1.32
-1.21
-1.01
-0.76
-0.51
-0.30
-0.12
0.03
0.16
0.29
0.41
0.51
0.57
0.56
0.49
0.36
0.22
0.09
-0.01
-0.11
-0.21
-0.35
-0.53
-0.70
-0.82
-0.84
-0.72
-0.46
-0.10
0.28
0.61
0.79
0.78
0.61
0.36
0.10
-0.08
-0.15
-0.13
-0.02
0.16
0.38
0.60
0.77
0.81
0.66
0.36
0.01
-0.25
-0.31
-0.17
0.05
0.21
0.19
-0.01
-0.31
-0.60
-0.79
-0.81
-0.69
-0.46
-0.18
0.09
0.27
0.33
0.26
0.07
-0.16
-0.36
-0.46
-0.44
-0.32
-0.15
0.04
0.21
0.33
0.39
0.40
0.36
0.30
0.20
0.09
-0.02
-0.10
-0.16
-0.19
-0.23
-0.33
-0.48
-0.66
-0.75
-0.69
-0.49
-0.24
-0.05
-0.01
-0.09
-0.18
-0.15
0.03
0.32
0.60
0.78
0.83
0.77
0.67
0.55
0.37
0.15
-0.11
-0.34
-0.49
-0.53
-0.50
-0.45
-0.38
-0.29
-0.12
0.15
0.46
0.72
0.83
0.75
0.54
0.30
0.13
0.09
0.20
0.39
0.59
0.71
0.68
0.49
0.15
-0.24
-0.58
-0.77
-0.76
-0.61
-0.39
-0.22
-0.15
-0.20
-0.32
-0.44
-0.52
-0.52
-0.48
-0.42
-0.37
-0.32
-0.26
-0.15
0.01
0.21
0.39
0.50
0.49
0.36
0.12
-0.19
-0.49
-0.69
-0.70
-0.48
-0.08
0.40
0.79
0.95
0.86
0.60
0.34
0.23
0.33
0.54
0.73
0.75
0.57
0.24
-0.13
-0.42
-0.59
-0.62
-0.57
-0.44
-0.26
-0.06
0.12
0.26
0.28
0.15
-0.11
-0.46
-0.80
-1.02
-1.06
-0.89
-0.54
-0.11
0.28
0.54
0.62
0.57
0.44
0.34
0.31
0.31
0.27
0.15
-0.08
-0.33
-0.48
-0.45
-0.23
0.07
0.28
0.31
0.18
0.01
-0.06
0.02
0.21
0.35
0.33
0.16
-0.05
-0.13
0.02
0.36
0.74
0.97
0.97
0.77
0.53
0.38
0.37
0.43
0.43
0.25
-0.11
-0.53
-0.87
-1.01
-0.97
-0.84
-0.79
-0.87
-1.09
-1.30
-1.36
-1.17
-0.73
-0.18
0.31
0.60
0.63
0.47
0.26
0.11
0.06
0.06
0.05
0.00
-0.04
0.01
0.20
0.52
0.83
0.98
0.88
0.51
0.00
-0.46
-0.72
-0.69
-0.43
-0.08
0.22
0.35
0.31
0.17
0.04
-0.02
-0.03
-0.04
-0.08
-0.17
-0.25
-0.31
-0.33
-0.34
-0.38
-0.44
-0.47
-0.40
-0.19
0.13
0.46
0.68
0.70
0.49
0.12
-0.28
-0.57
-0.66
-0.54
-0.28
-0.00
0.16
0.17
0.07
-0.04
-0.04
0.13
0.43
0.74
0.94
0.94
0.76
0.49
0.24
0.08
0.04
0.03
-0.02
-0.13
-0.29
-0.43
-0.48
-0.43
-0.34
-0.29
-0.32
-0.40
-0.43
-0.33
-0.06
0.30
0.63
0.83
0.84
0.70
0.50
0.31
0.17
0.06
-0.07
-0.21
-0.34
-0.44
-0.45
-0.39
-0.27
-0.15
-0.07
-0.05
-0.07
-0.08
-0.03
0.12
0.31
0.46
0.49
0.34
0.07
-0.24
-0.46
-0.53
-0.45
-0.28
-0.09
0.07
0.20
0.29
0.36
0.37
0.31
0.18
0.00
-0.16
-0.27
-0.29
-0.28
-0.27
-0.29
-0.34
-0.34
-0.24
-0.04
0.19
0.33
0.26
-0.04
-0.47
-0.84
-0.99
-0.86
-0.51
-0.09
0.25
0.43
0.49
0.50
0.56
0.67
0.79
0.85
0.80
0.65
0.42
0.18
-0.06
-0.25
-0.37
-0.38
-0.21
0.09
0.46
0.74
0.81
0.60
0.19
-0.26
-0.59
-0.68
-0.51
-0.18
0.16
0.40
0.45
0.31
0.03
-0.30
-0.61
-0.81
-0.87
-0.79
-0.60
-0.36
-0.12
0.09
0.22
0.27
0.22
0.05
-0.18
-0.43
-0.60
-0.62
-0.46
-0.15
0.23
0.57
0.77
0.82
0.73
0.61
0.52
0.49
0.49
0.44
0.31
0.08
-0.18
-0.38
-0.47
-0.41
-0.21
0.04
0.30
0.49
0.58
0.58
0.48
0.32
0.13
-0.08
-0.29
-0.50
-0.69
-0.82
-0.85
-0.73
-0.48
-0.16
0.08
0.14
0.01
-0.25
-0.50
-0.62
-0.58
-0.44
-0.31
-0.27
-0.36
-0.50
-0.62
-0.64
-0.59
-0.51
-0.46
-0.43
-0.34
-0.10
0.34
0.90
1.42
1.70
1.63
1.23
0.69
0.27
0.14
0.30
0.61
0.86
0.89
0.73
0.49
0.31
0.25
0.25
0.19
-0.02
-0.34
-0.67
-0.85
-0.80
-0.54
-0.20
0.10
0.29
0.37
0.38
0.38
0.39
0.37
0.31
0.17
-0.02
-0.20
-0.32
-0.37
-0.36
-0.33
-0.33
-0.37
-0.46
-0.55
-0.60
-0.59
-0.53
-0.44
-0.34
-0.22
-0.06
0.14
0.38
0.60
0.74
0.75
0.63
0.40
0.15
-0.04
-0.12
-0.11
-0.07
-0.08
-0.19
-0.37
-0.56
-0.69
-0.71
-0.64
-0.55
-0.48
-0.43
-0.36
-0.23
-0.03
0.20
0.36
0.37
0.20
-0.07
-0.35
-0.52
-0.51
-0.34
-0.11
0.10
0.22
0.25
0.26
0.28
0.35
0.44
0.49
0.47
0.39
0.27
0.17
0.09
0.04
0.01
0.01
0.07
0.21
0.39
0.53
0.54
0.38
0.11
-0.13
-0.22
-0.10
0.15
0.39
0.50
0.43
0.22
-0.02
-0.20
-0.31
-0.33
-0.31
-0.23
-0.11
0.04
0.16
0.19
0.10
-0.05
-0.16
-0.16
-0.04
0.10
0.11
-0.09
-0.48
-0.90
-1.19
-1.20
-0.93
-0.50
-0.08
0.18
0.24
0.16
0.03
-0.02
0.06
0.25
0.48
0.67
0.73
0.65
0.49
0.29
0.12
-0.02
-0.18
-0.37
-0.59
-0.78
-0.86
-0.76
-0.49
-0.10
0.29
0.57
0.70
0.66
0.49
0.27
0.04
-0.15
-0.30
-0.39
-0.40
-0.33
-0.17
0.04
0.22
0.31
0.26
0.10
-0.08
-0.17
-0.11
0.08
0.30
0.45
0.45
0.30
0.07
-0.14
-0.27
-0.28
-0.20
-0.09
-0.00
0.01
-0.05
-0.11
-0.11
0.01
0.22
0.44
0.58
0.56
0.41
0.22
0.10
0.10
0.18
0.24
0.20
0.02
-0.21
-0.39
-0.44
-0.35
-0.18
-0.00
0.13
0.23
0.34
0.47
0.58
0.59
0.47
0.23
-0.01
-0.15
-0.13
-0.01
0.08
0.02
-0.18
-0.43
-0.55
-0.47
-0.20
0.12
0.33
0.35
0.22
0.03
-0.15
-0.28
-0.40
-0.50
-0.58
-0.60
-0.50
-0.31
-0.07
0.11
0.19
0.15
0.05
-0.05
-0.11
-0.12
-0.11
-0.13
-0.22
-0.37
-0.52
-0.58
-0.49
-0.24
0.08
0.34
0.44
0.37
0.19
0.02
-0.09
-0.12
-0.13
-0.16
-0.21
-0.24
-0.19
-0.09
0.05
0.16
0.24
0.27
0.28
0.28
0.22
0.12
-0.02
-0.11
-0.06
0.15
0.48
0.82
1.01
0.97
0.70
0.29
-0.12
-0.42
-0.54
-0.47
-0.25
0.03
0.28
0.42
0.42
0.28
0.09
-0.09
-0.18
-0.16
-0.05
0.12
0.28
0.43
0.54
0.62
0.65
0.60
0.42
0.14
-0.21
-0.54
-0.78
-0.87
-0.81
-0.67
-0.53
-0.45
-0.44
-0.47
-0.47
-0.39
-0.24
-0.05
0.10
0.17
0.19
0.17
0.17
0.21
0.25
0.26
0.21
0.09
-0.06
-0.17
-0.18
-0.08
0.14
0.42
0.68
0.84
0.84
0.65
0.34
-0.02
-0.33
-0.53
-0.62
-0.64
-0.63
-0.62
-0.60
-0.56
-0.47
-0.37
-0.29
-0.26
-0.29
-0.32
-0.30
-0.16
0.07
0.34
0.55
0.59
0.47
0.21
-0.08
-0.30
-0.39
-0.35
-0.18
0.07
0.38
0.68
0.88
0.91
0.70
0.31
-0.16
-0.59
-0.84
-0.88
-0.74
-0.48
-0.15
0.21
0.55
0.82
0.95
0.89
0.63
0.24
-0.14
-0.39
-0.41
-0.21
0.12
0.46
0.71
0.80
0.72
0.52
0.26
0.00
-0.22
-0.39
-0.47
-0.45
-0.32
-0.10
0.16
0.37
0.46
0.40
0.21
-0.05
-0.29
-0.45
-0.52
-0.57
-0.62
-0.70
-0.75
-0.69
-0.47
-0.13
0.25
0.55
0.70
0.70
0.59
0.42
0.22
-0.01
-0.27
-0.53
-0.72
-0.78
-0.68
-0.46
-0.20
0.01
0.07
0.01
-0.14
-0.25
-0.21
0.03
0.42
0.86
1.17
1.26
1.08
0.70
0.25
-0.16
-0.41
-0.46
-0.33
-0.09
0.15
0.29
0.28
0.13
-0.08
-0.26
-0.36
-0.40
-0.42
-0.45
-0.49
-0.48
-0.39
-0.22
-0.04
0.06
0.02
-0.15
-0.38
-0.55
-0.62
-0.58
-0.47
-0.33
-0.18
-0.02
0.16
0.31
0.37
0.27
0.03
-0.27
-0.49
-0.51
-0.32
-0.00
0.30
0.48
0.48
0.33
0.08
-0.17
-0.36
-0.45
-0.40
-0.22
0.06
0.37
0.61
0.73
0.71
0.61
0.49
0.40
0.35
0.28
0.18
0.04
-0.11
-0.22
-0.24
-0.17
-0.04
0.09
0.17
0.21
0.26
0.37
0.52
0.68
0.78
0.77
0.63
0.42
0.19
-0.02
-0.20
-0.35
-0.46
-0.53
-0.52
-0.45
-0.35
-0.26
-0.20
-0.16
-0.12
-0.07
0.00
0.06
0.10
0.09
0.07
0.02
-0.03
-0.08
-0.11
-0.09
-0.03
0.05
0.13
0.15
0.12
0.06
0.03
0.06
0.18
0.31
0.40
0.36
0.20
-0.04
-0.25
-0.35
-0.33
-0.26
-0.24
-0.34
-0.54
-0.77
-0.91
-0.91
-0.78
-0.59
-0.42
-0.31
-0.24
-0.18
-0.11
-0.07
-0.09
-0.20
-0.36
-0.49
-0.51
-0.39
-0.16
0.10
0.35
0.52
0.64
0.71
0.76
0.77
0.73
0.67
0.57
0.47
0.35
0.23
0.11
0.03
0.01
0.09
0.22
0.32
0.33
0.22
0.04
-0.11
-0.14
-0.04
0.15
0.32
0.40
0.37
0.29
0.24
0.29
0.43
0.61
0.75
0.78
0.70
0.53
0.34
0.17
0.07
0.02
-0.03
-0.11
-0.26
-0.46
-0.69
-0.90
-1.06
-1.16
-1.20
-1.18
-1.12
-1.00
-0.84
-0.63
-0.41
-0.21
-0.07
-0.02
-0.06
-0.17
-0.30
-0.40
-0.43
-0.38
-0.24
-0.04
0.17
0.37
0.50
0.53
0.43
0.25
0.04
-0.09
-0.11
-0.01
0.13
0.24
0.26
0.20
0.07
-0.09
-0.26
-0.42
-0.51
-0.46
-0.24
0.15
0.58
0.90
1.00
0.86
0.58
0.30
0.14
0.14
0.24
0.36
0.42
0.42
0.44
0.52
0.70
0.94
1.12
1.15
0.97
0.61
0.20
-0.07
-0.09
0.15
0.52
0.81
0.82
0.46
-0.20
-0.99
-1.70
-2.18
-2.37
-2.30
-2.05
-1.67
-1.22
-0.74
-0.26
0.15
0.42
0.48
0.34
0.06
-0.25
-0.46
-0.47
-0.23
0.17
0.59
0.87
0.93
0.79
0.59
0.48
0.51
0.65
0.77
0.76
0.60
0.38
0.21
0.20
0.33
0.50
0.58
0.51
0.28
-0.03
-0.32
-0.51
-0.59
-0.55
-0.45
-0.34
-0.27
-0.24
-0.24
-0.22
-0.14
-0.00
0.14
0.20
0.13
-0.09
-0.37
-0.58
-0.57
-0.27
0.31
0.99
1.56
1.78
1.52
0.81
-0.18
-1.16
-1.92
-2.29
-2.29
-2.04
-1.66
-1.28
-0.93
-0.64
-0.42
-0.28
-0.21
-0.18
-0.13
-0.02
0.18
0.41
0.62
0.72
0.66
0.47
0.22
-0.01
-0.11
-0.08
0.03
0.13
0.15
0.06
-0.06
-0.07
0.10
0.44
0.80
1.03
1.02
0.82
0.54
0.31
0.20
0.16
0.13
0.08
0.06
0.15
0.38
0.67
0.88
0.88
0.65
0.31
0.07
0.07
0.34
0.73
1.04
1.12
0.91
0.51
0.08
-0.23
-0.33
-0.23
-0.03
0.17
0.29
0.31
0.23
0.09
-0.14
-0.50
-1.00
-1.62
-2.23
-2.67
-2.80
-2.56
-2.02
-1.35
-0.74
-0.32
-0.10
-0.02
0.05
0.20
0.44
0.69
0.87
0.91
0.84
0.73
0.66
0.63
0.60
0.48
0.24
-0.08
-0.37
-0.51
-0.46
-0.28
-0.09
0.03
0.06
0.07
0.12
0.24
0.38
0.43
0.34
0.17
0.01
-0.02
0.13
0.39
0.62
0.68
0.52
0.20
-0.16
-0.45
-0.59
-0.59
-0.50
-0.33
-0.09
0.20
0.51
0.77
0.93
0.97
0.92
0.81
0.64
0.40
0.08
-0.31
-0.69
-0.96
-1.04
-0.93
-0.71
-0.50
-0.41
-0.47
-0.63
-0.79
-0.86
-0.80
-0.61
-0.33
-0.02
0.28
0.52
0.66
0.68
0.56
0.34
0.08
-0.15
-0.29
-0.29
-0.16
0.04
0.26
0.43
0.46
0.34
0.09
-0.22
-0.45
-0.45
-0.15
0.42
1.10
1.70
2.03
2.02
1.74
1.34
0.95
0.66
0.46
0.26
0.00
-0.30
-0.58
-0.72
-0.67
-0.45
-0.19
-0.04
-0.09
-0.30
-0.56
-0.68
-0.54
-0.10
0.55
1.23
1.71
1.81
1.46
0.71
-0.24
-1.16
-1.85
-2.22
-2.33
-2.29
-2.19
-2.09
-1.92
-1.64
-1.21
-0.73
-0.30
-0.04
-0.02
-0.17
-0.39
-0.58
-0.64
-0.56
-0.35
-0.06
0.23
0.47
0.60
0.61
0.52
0.38
0.26
0.23
0.30
0.45
0.64
0.82
0.95
1.02
1.02
0.94
0.81
0.63
0.47
0.38
0.37
0.38
0.32
0.13
-0.15
-0.43
-0.55
-0.42
-0.09
0.30
0.58
0.64
0.51
0.32
0.24
0.36
0.67
1.06
1.38
1.51
1.43
1.18
0.82
0.40
-0.06
-0.58
-1.14
-1.70
-2.17
-2.44
-2.46
-2.25
-1.91
-1.56
-1.29
-1.10
-0.93
-0.67
-0.28
0.18
0.62
0.92
1.01
0.92
0.74
0.55
0.43
0.38
0.37
0.39
0.44
0.54
0.68
0.83
0.93
0.92
0.80
0.58
0.32
0.03
-0.24
-0.49
-0.67
-0.75
-0.72
-0.60
-0.48
-0.40
-0.34
-0.26
-0.07
0.23
0.60
0.89
1.01
0.92
0.69
0.46
0.34
0.35
0.45
0.55
0.58
0.51
0.43
0.40
0.50
0.75
1.06
1.28
1.24
0.85
0.09
-0.86
-1.79
-2.47
-2.77
-2.73
-2.49
-2.21
-1.98
-1.78
-1.49
-1.07
-0.55
-0.06
0.24
0.26
0.08
-0.15
-0.26
-0.16
0.12
0.44
0.66
0.69
0.56
0.37
0.20
0.13
0.16
0.26
0.35
0.39
0.37
0.29
0.19
0.11
0.08
0.10
0.17
0.27
0.40
0.55
0.70
0.84
0.93
0.93
0.81
0.55
0.22
-0.10
-0.30
-0.29
-0.10
0.19
0.44
0.55
0.48
0.28
0.07
-0.08
-0.10
0.00
0.20
0.47
0.76
1.03
1.20
1.19
0.93
0.39
-0.33
-1.10
-1.76
-2.22
-2.43
-2.44
-2.27
-1.98
-1.57
-1.07
-0.52
0.01
0.44
0.69
0.76
0.67
0.47
0.23
0.05
-0.01
0.09
0.32
0.63
0.90
1.04
0.97
0.72
0.34
-0.08
-0.43
-0.64
-0.69
-0.56
-0.28
0.08
0.45
0.75
0.90
0.89
0.74
0.52
0.30
0.16
0.13
0.20
0.34
0.50
0.64
0.72
0.73
0.65
0.48
0.26
0.07
-0.02
0.06
0.26
0.47
0.56
0.46
0.20
-0.11
-0.35
-0.43
-0.42
-0.41
-0.51
-0.76
-1.10
-1.40
-1.55
-1.54
-1.41
-1.26
-1.14
-1.02
-0.84
-0.53
-0.12
0.31
0.64
0.75
0.64
0.36
-0.01
-0.37
-0.66
-0.84
-0.85
-0.66
-0.28
0.21
0.67
0.96
1.03
0.93
0.76
0.63
0.61
0.66
0.71
0.67
0.54
0.32
0.06
-0.15
-0.27
-0.27
-0.15
0.05
0.23
0.35
0.34
0.21
0.02
-0.19
-0.34
-0.37
-0.27
-0.04
0.25
0.54
0.73
0.81
0.77
0.66
0.56
0.49
0.45
0.45
0.45
0.44
0.40
0.27
0.01
-0.39
-0.88
-1.37
-1.74
-1.91
-1.87
-1.68
-1.43
-1.20
-1.01
-0.83
-0.62
-0.36
-0.13
0.01
-0.01
-0.14
-0.31
-0.40
-0.32
-0.09
0.24
0.53
0.71
0.72
0.56
0.28
-0.02
-0.24
-0.29
-0.16
0.12
0.45
0.71
0.85
0.87
0.82
0.74
0.66
0.61
0.59
0.64
0.76
0.96
1.15
1.24
1.14
0.82
0.37
-0.06
-0.33
-0.40
-0.33
-0.23
-0.22
-0.32
-0.47
-0.55
-0.50
-0.32
-0.09
0.09
0.18
0.21
0.25
0.34
0.47
0.52
0.38
-0.01
-0.60
-1.26
-1.79
-2.05
-2.00
-1.74
-1.41
-1.17
-1.05
-0.97
-0.80
-0.46
0.03
0.55
0.90
0.98
0.80
0.49
0.26
0.22
0.40
0.70
0.97
1.09
1.02
0.78
0.45
0.14
-0.09
-0.21
-0.22
-0.12
0.06
0.31
0.62
0.92
1.12
1.14
0.93
0.53
0.06
-0.33
-0.50
-0.38
-0.04
0.37
0.68
0.76
0.57
0.18
-0.28
-0.65
-0.80
-0.71
-0.40
0.01
0.38
0.61
0.63
0.43
0.12
-0.14
-0.20
0.05
0.56
1.17
1.63
1.71
1.31
0.48
-0.57
-1.57
-2.29
-2.62
-2.58
-2.33
-2.04
-1.82
-1.69
-1.59
-1.38
-0.98
-0.43
0.18
0.71
1.04
1.16
1.11
0.96
0.75
0.49
0.16
-0.22
-0.57
-0.81
-0.83
-0.62
-0.24
0.16
0.46
0.59
0.56
0.47
0.39
0.37
0.38
0.36
0.27
0.12
-0.05
-0.17
-0.19
-0.11
0.03
0.17
0.27
0.33
0.35
0.33
0.31
0.29
0.31
0.38
0.50
0.61
0.67
0.66
0.60
0.55
0.55
0.58
0.60
0.56
0.45
0.32
0.21
0.13
0.03
-0.21
-0.64
-1.22
-1.78
-2.12
-2.11
-1.76
-1.20
-0.63
-0.18
0.10
0.24
0.29
0.27
0.18
0.03
-0.13
-0.24
-0.24
-0.12
0.05
0.17
0.17
0.03
-0.20
-0.42
-0.55
-0.54
-0.41
-0.18
0.08
0.34
0.57
0.77
0.94
1.05
1.07
0.98
0.80
0.60
0.50
0.54
0.71
0.88
0.91
0.69
0.25
-0.26
-0.64
-0.73
-0.51
-0.07
0.41
0.77
0.91
0.87
0.74
0.62
0.56
0.49
0.33
0.05
-0.31
-0.63
-0.78
-0.75
-0.65
-0.65
-0.85
-1.18
-1.47
-1.53
-1.29
-0.85
-0.44
-0.24
-0.32
-0.56
-0.78
-0.84
-0.69
-0.39
-0.06
0.20
0.34
0.39
0.38
0.38
0.41
0.48
0.59
0.72
0.84
0.91
0.90
0.77
0.53
0.21
-0.12
-0.39
-0.51
-0.46
-0.26
0.02
0.25
0.34
0.25
0.04
-0.18
-0.28
-0.23
-0.05
0.15
0.23
0.13
-0.12
-0.40
-0.57
-0.54
-0.27
0.18
0.70
1.17
1.49
1.61
1.56
1.40
1.21
1.03
0.88
0.74
0.60
0.46
0.35
0.30
0.27
0.20
0.04
-0.27
-0.70
-1.18
-1.61
-1.92
-2.10
-2.19
-2.24
-2.26
-2.23
-2.09
-1.79
-1.34
-0.82
-0.31
0.08
0.30
0.32
0.19
-0.03
-0.24
-0.35
-0.29
-0.03
0.36
0.80
1.15
1.32
1.30
1.13
0.88
0.63
0.43
0.27
0.14
0.04
-0.01
0.01
0.12
0.30
0.54
0.76
0.90
0.91
0.77
0.52
0.22
-0.05
-0.21
-0.23
-0.09
0.16
0.46
0.69
0.79
0.70
0.44
0.10
-0.17
-0.25
-0.10
0.25
0.66
1.00
1.15
1.07
0.78
0.36
-0.11
-0.57
-0.99
-1.36
-1.65
-1.84
-1.91
-1.84
-1.68
-1.43
-1.14
-0.81
-0.47
-0.14
0.12
0.26
0.24
0.13
0.01
-0.02
0.09
0.30
0.50
0.60
0.55
0.38
0.16
-0.04
-0.18
-0.27
-0.31
-0.29
-0.20
-0.05
0.14
0.34
0.48
0.50
0.37
0.11
-0.22
-0.51
-0.66
-0.64
-0.50
-0.33
-0.22
-0.19
-0.18
-0.10
0.09
0.34
0.54
0.57
0.41
0.15
-0.07
-0.11
0.04
0.33
0.60
0.76
0.79
0.77
0.79
0.90
1.08
1.21
1.17
0.86
0.31
-0.35
-0.96
-1.38
-1.57
-1.62
-1.61
-1.58
-1.50
-1.29
-0.90
-0.38
0.15
0.55
0.73
0.74
0.67
0.63
0.61
0.58
0.45
0.21
-0.03
-0.16
-0.10
0.13
0.38
0.52
0.46
0.25
0.04
-0.02
0.13
0.42
0.70
0.82
0.72
0.46
0.13
-0.15
-0.36
-0.54
-0.71
-0.86
-0.90
-0.74
-0.38
0.08
0.47
0.65
0.61
0.44
0.34
0.45
0.76
1.15
1.43
1.46
1.23
0.83
0.38
0.01
-0.23
-0.36
-0.38
-0.29
-0.08
0.19
0.42
0.45
0.20
-0.31
-0.93
-1.44
-1.68
-1.63
-1.41
-1.22
-1.17
-1.25
-1.36
-1.37
-1.23
-1.01
-0.82
-0.74
-0.75
-0.79
-0.76
-0.62
-0.41
-0.22
-0.11
-0.09
-0.09
-0.03
0.16
0.45
0.78
1.02
1.08
0.96
0.71
0.47
0.32
0.34
0.49
0.74
0.98
1.13
1.18
1.12
1.02
0.95
0.96
1.08
1.29
1.47
1.54
1.41
1.10
0.69
0.31
0.03
-0.13
-0.20
-0.25
-0.34
-0.46
-0.58
-0.66
-0.66
-0.61
-0.52
-0.45
-0.40
-0.39
-0.41
-0.46
-0.54
-0.67
-0.85
-1.06
-1.26
-1.41
-1.45
-1.32
-1.01
-0.52
0.04
0.54
0.83
0.83
0.57
0.17
-0.20
-0.43
-0.46
-0.35
-0.20
-0.06
0.05
0.14
0.26
0.39
0.50
0.55
0.54
0.48
0.44
0.42
0.41
0.39
0.33
0.21
0.08
-0.03
-0.12
-0.18
-0.23
-0.24
-0.18
-0.04
0.15
0.36
0.49
0.51
0.46
0.37
0.32
0.33
0.38
0.42
0.39
0.30
0.16
0.06
0.06
0.15
0.29
0.41
0.47
0.47
0.49
0.55
0.63
0.58
0.24
-0.45
-1.43
-2.42
-3.11
-3.29
-2.90
-2.13
-1.27
-0.53
-0.05
0.20
0.31
0.37
0.42
0.44
0.37
0.22
0.00
-0.17
-0.20
-0.02
0.35
0.82
1.23
1.46
1.44
1.17
0.74
0.26
-0.16
-0.46
-0.59
-0.55
-0.36
-0.06
0.31
0.64
0.84
0.84
0.61
0.25
-0.10
-0.30
-0.29
-0.06
0.26
0.53
0.63
0.51
0.22
-0.15
-0.44
-0.56
-0.45
-0.17
0.20
0.51
0.66
0.61
0.39
0.05
-0.32
-0.65
-0.88
-0.95
-0.81
-0.49
-0.05
0.35
0.56
0.50
0.19
-0.28
-0.72
-1.00
-1.03
-0.80
-0.36
0.14
0.57
0.80
0.75
0.42
-0.08
-0.62
-1.02
-1.17
-1.01
-0.61
-0.09
0.40
0.73
0.85
0.76
0.55
0.33
0.16
0.08
0.08
0.13
0.21
0.31
0.40
0.43
0.36
0.17
-0.11
-0.38
-0.55
-0.53
-0.35
-0.07
0.17
0.30
0.26
0.12
-0.07
-0.22
-0.31
-0.35
-0.34
-0.29
-0.21
-0.09
0.04
0.13
0.16
0.10
-0.02
-0.13
-0.18
-0.12
0.03
0.21
0.35
0.40
0.36
0.25
0.13
0.04
-0.00
-0.02
-0.02
-0.01
-0.02
-0.03
-0.05
-0.06
-0.03
0.03
0.13
0.26
0.37
0.43
0.38
0.25
0.04
-0.16
-0.29
-0.32
-0.23
-0.08
0.09
0.19
0.19
0.10
-0.03
-0.15
-0.20
-0.18
-0.11
-0.04
-0.03
-0.09
-0.21
-0.33
-0.40
-0.36
-0.18
0.10
0.41
0.66
0.76
0.70
0.50
0.21
-0.10
-0.38
-0.60
-0.72
-0.72
-0.57
-0.29
0.05
0.36
0.53
0.52
0.33
0.04
-0.22
-0.35
-0.31
-0.13
0.08
0.20
0.17
-0.00
-0.21
-0.34
-0.32
-0.15
0.08
0.28
0.36
0.33
0.20
0.05
-0.07
-0.11
-0.08
-0.00
0.08
0.14
0.16
0.18
0.21
0.26
0.31
0.29
0.19
0.01
-0.18
-0.30
-0.29
-0.18
-0.03
0.08
0.12
0.07
-0.02
-0.13
-0.20
-0.21
-0.15
-0.02
0.14
0.25
0.29
0.24
0.12
-0.03
-0.15
-0.24
-0.27
-0.21
-0.04
0.21
0.49
0.69
0.72
0.54
0.23
-0.13
-0.43
-0.63
-0.77
-0.88
-0.96
-0.98
-0.85
-0.55
-0.08
0.44
0.89
1.16
1.21
1.06
0.76
0.39
0.04
-0.25
-0.45
-0.51
-0.44
-0.24
0.01
0.26
0.43
0.48
0.40
0.22
-0.02
-0.27
-0.50
-0.66
-0.74
-0.69
-0.51
-0.20
0.18
0.54
0.82
0.93
0.83
0.55
0.13
-0.29
-0.59
-0.66
-0.48
-0.14
0.24
0.48
0.52
0.34
0.03
-0.30
-0.56
-0.72
-0.75
-0.64
-0.40
-0.03
0.39
0.74
0.92
0.85
0.55
0.15
-0.24
-0.49
-0.56
-0.46
-0.26
-0.03
0.14
0.20
0.12
-0.08
-0.31
-0.48
-0.52
-0.46
-0.37
-0.33
-0.39
-0.50
-0.58
-0.53
-0.34
-0.07
0.16
0.28
0.29
0.23
0.18
0.18
0.20
0.20
0.13
0.00
-0.14
-0.24
-0.26
-0.20
-0.07
0.09
0.24
0.36
0.41
0.39
0.31
0.21
0.12
0.06
0.01
-0.05
-0.16
-0.30
-0.42
-0.46
-0.38
-0.18
0.11
0.43
0.75
1.00
1.14
1.11
0.84
0.36
-0.21
-0.70
-0.93
-0.83
-0.50
-0.11
0.13
0.11
-0.13
-0.43
-0.61
-0.55
-0.27
0.12
0.48
0.70
0.75
0.66
0.48
0.29
0.10
-0.06
-0.17
-0.22
-0.18
-0.05
0.16
0.37
0.53
0.59
0.57
0.51
0.46
0.39
0.28
0.08
-0.20
-0.48
-0.65
-0.63
-0.42
-0.08
0.26
0.50
0.59
0.52
0.35
0.15
-0.03
-0.15
-0.19
-0.12
0.01
0.17
0.30
0.34
0.25
0.07
-0.16
-0.36
-0.49
-0.56
-0.58
-0.61
-0.64
-0.64
-0.57
-0.40
-0.17
0.01
0.08
-0.02
-0.25
-0.50
-0.65
-0.66
-0.52
-0.32
-0.15
-0.09
-0.13
-0.25
-0.39
-0.48
-0.48
-0.38
-0.17
0.12
0.46
0.79
1.06
1.21
1.20
1.02
0.70
0.35
0.06
-0.07
-0.03
0.12
0.29
0.41
0.43
0.40
0.35
0.30
0.21
0.03
-0.28
-0.64
-0.93
-1.02
-0.89
-0.58
-0.24
0.02
0.13
0.14
0.12
0.13
0.18
0.19
0.11
-0.06
-0.25
-0.34
-0.28
-0.08
0.15
0.28
0.22
-0.01
-0.31
-0.55
-0.66
-0.61
-0.47
-0.29
-0.12
0.02
0.18
0.35
0.53
0.69
0.80
0.83
0.76
0.59
0.34
0.08
-0.12
-0.19
-0.09
0.10
0.24
0.21
-0.07
-0.54
-1.03
-1.35
-1.39
-1.17
-0.81
-0.45
-0.15
0.08
0.29
0.49
0.61
0.61
0.43
0.14
-0.18
-0.38
-0.40
-0.25
0.00
0.27
0.48
0.59
0.57
0.46
0.32
0.22
0.25
0.41
0.63
0.79
0.79
0.60
0.30
-0.01
-0.24
-0.36
-0.40
-0.42
-0.43
-0.39
-0.28
-0.12
0.01
0.03
-0.14
-0.45
-0.80
-1.04
-1.07
-0.87
-0.49
-0.04
0.38
0.72
0.94
1.01
0.95
0.76
0.49
0.20
-0.05
-0.21
-0.24
-0.20
-0.11
-0.01
0.06
0.11
0.17
0.25
0.34
0.40
0.40
0.32
0.16
-0.04
-0.20
-0.28
-0.22
-0.05
0.22
0.50
0.73
0.86
0.88
0.81
0.71
0.62
0.57
0.52
0.42
0.18
-0.21
-0.76
-1.36
-1.90
-2.24
-2.30
-2.09
-1.71
-1.30
-0.98
-0.79
-0.69
-0.55
-0.29
0.06
0.40
0.62
0.63
0.49
0.33
0.29
0.43
0.66
0.87
0.95
0.89
0.78
0.71
0.73
0.80
0.86
0.86
0.77
0.63
0.45
0.24
0.01
-0.21
-0.37
-0.44
-0.39
-0.29
-0.20
-0.20
-0.29
-0.40
-0.45
-0.38
-0.21
0.01
0.21
0.34
0.37
0.32
0.20
0.01
-0.22
-0.46
-0.70
-0.87
-0.94
-0.87
-0.67
-0.38
-0.09
0.13
0.26
0.31
0.31
0.28
0.25
0.20
0.14
0.12
0.15
0.26
0.39
0.44
0.34
0.09
-0.23
-0.45
-0.43
-0.17
0.23
0.55
0.64
0.46
0.12
-0.20
-0.30
-0.14
0.17
0.44
0.48
0.22
-0.24
-0.72
-1.03
-1.07
-0.84
-0.43
0.06
0.52
0.86
0.99
0.87
0.50
-0.07
-0.69
-1.18
-1.40
-1.27
-0.86
-0.31
0.23
0.62
0.82
0.83
0.69
0.46
0.17
-0.12
-0.35
-0.48
-0.44
-0.26
0.02
0.30
0.49
0.50
0.37
0.14
-0.06
-0.16
-0.12
0.00
0.16
0.29
0.38
0.43
0.45
0.43
0.35
0.18
-0.07
-0.36
-0.59
-0.68
-0.61
-0.41
-0.14
0.07
0.16
0.13
0.04
-0.02
0.02
0.16
0.31
0.35
0.19
-0.16
-0.59
-0.93
-1.06
-0.96
-0.68
-0.36
-0.11
-0.00
-0.05
-0.21
-0.42
-0.62
-0.73
-0.70
-0.51
-0.16
0.28
0.69
0.96
1.02
0.86
0.54
0.20
-0.05
-0.12
0.01
0.25
0.54
0.77
0.90
0.93
0.88
0.80
0.76
0.78
0.88
1.05
1.20
1.24
1.11
0.79
0.38
-0.02
-0.29
-0.43
-0.49
-0.60
-0.82
-1.15
-1.48
-1.68
-1.69
-1.52
-1.27
-1.02
-0.82
-0.61
-0.37
-0.10
0.14
0.28
0.28
0.20
0.13
0.14
0.26
0.45
0.62
0.72
0.73
0.67
0.56
0.39
0.19
-0.03
-0.21
-0.31
-0.29
-0.17
-0.00
0.14
0.21
0.17
0.05
-0.10
-0.24
-0.31
-0.26
-0.11
0.13
0.42
0.69
0.91
1.06
1.15
1.19
1.17
1.04
0.73
0.19
-0.55
-1.37
-2.08
-2.49
-2.49
-2.11
-1.49
-0.82
-0.28
0.01
0.07
-0.05
-0.24
-0.35
-0.31
-0.09
0.25
0.60
0.83
0.87
0.72
0.48
0.27
0.16
0.13
0.12
0.07
-0.03
-0.14
-0.19
-0.17
-0.09
0.03
0.16
0.31
0.51
0.78
1.06
1.26
1.28
1.08
0.70
0.24
-0.16
-0.41
-0.50
-0.50
-0.52
-0.64
-0.83
-1.00
-1.02
-0.80
-0.41
0.04
0.34
0.39
0.20
-0.10
-0.31
-0.28
0.03
0.51
0.97
1.21
1.13
0.78
0.30
-0.14
-0.41
-0.50
-0.48
-0.41
-0.34
-0.23
-0.05
0.18
0.37
0.41
0.24
-0.07
-0.37
-0.50
-0.38
-0.07
0.29
0.54
0.61
0.54
0.43
0.33
0.29
0.27
0.23
0.17
0.09
-0.00
-0.12
-0.34
-0.70
-1.20
-1.72
-2.06
-2.08
-1.72
-1.07
-0.32
0.33
0.72
0.84
0.73
0.50
0.26
0.10
0.06
0.13
0.23
0.29
0.28
0.21
0.18
0.28
0.53
0.83
1.05
1.03
0.76
0.35
-0.02
-0.20
-0.16
0.02
0.16
0.16
0.00
-0.22
-0.40
-0.45
-0.33
-0.11
0.13
0.31
0.41
0.42
0.35
0.24
0.07
-0.16
-0.47
-0.85
-1.25
-1.58
-1.69
-1.53
-1.08
-0.46
0.18
0.67
0.91
0.90
0.70
0.37
0.00
-0.36
-0.66
-0.85
-0.89
-0.76
-0.49
-0.17
0.12
0.33
0.46
0.56
0.68
0.83
0.94
0.97
0.87
0.67
0.45
0.31
0.31
0.45
0.65
0.76
0.69
0.43
0.06
-0.27
-0.43
-0.39
-0.20
0.04
0.23
0.35
0.39
0.36
0.23
-0.05
-0.50
-1.05
-1.55
-1.83
-1.75
-1.35
-0.76
-0.19
0.18
0.27
0.13
-0.12
-0.33
-0.43
-0.38
-0.21
0.02
0.27
0.53
0.79
1.02
1.18
1.26
1.24
1.15
1.03
0.90
0.77
0.65
0.51
0.36
0.21
0.07
-0.05
-0.16
-0.23
-0.23
-0.12
0.08
0.30
0.46
0.43
0.19
-0.22
-0.67
-1.02
-1.17
-1.12
-0.93
-0.72
-0.56
-0.50
-0.49
-0.51
-0.52
-0.51
-0.49
-0.42
-0.29
-0.06
0.23
0.51
0.67
0.62
0.39
0.07
-0.20
-0.34
-0.33
-0.22
-0.08
0.06
0.20
0.37
0.55
0.69
0.71
0.56
0.25
-0.13
-0.44
-0.59
-0.57
-0.42
-0.20
-0.01
0.12
0.16
0.13
0.05
-0.04
-0.08
-0.06
-0.01
0.03
-0.02
-0.20
-0.47
-0.74
-0.90
-0.88
-0.70
-0.43
-0.18
0.02
0.16
0.25
0.32
0.35
0.35
0.32
0.31
0.37
0.52
0.71
0.86
0.87
0.74
0.50
0.25
0.07
0.00
0.01
0.04
0.01
-0.10
-0.26
-0.39
-0.38
-0.16
0.26
0.76
1.13
1.22
0.96
0.44
-0.12
-0.50
-0.57
-0.35
0.04
0.41
0.61
0.61
0.42
0.11
-0.26
-0.65
-1.01
-1.32
-1.51
-1.54
-1.38
-1.05
-0.63
-0.22
0.10
0.27
0.32
0.30
0.25
0.22
0.17
0.06
-0.13
-0.40
-0.69
-0.90
-0.97
-0.85
-0.56
-0.17
0.18
0.38
0.37
0.17
-0.10
-0.30
-0.28
-0.00
0.49
1.02
1.43
1.59
1.49
1.22
0.89
0.62
0.44
0.38
0.40
0.44
0.43
0.31
0.05
-0.33
-0.77
-1.17
-1.45
-1.54
-1.46
-1.26
-0.97
-0.62
-0.19
0.29
0.78
1.17
1.36
1.32
1.10
0.81
0.55
0.39
0.34
0.36
0.39
0.38
0.30
0.12
-0.16
-0.53
-0.94
-1.31
-1.54
-1.58
-1.40
-1.06
-0.63
-0.22
0.10
0.30
0.37
0.32
0.21
0.07
-0.02
-0.00
0.16
0.44
0.75
0.96
0.94
0.66
0.17
-0.36
-0.77
-0.95
-0.89
-0.68
-0.44
-0.23
-0.06
0.11
0.32
0.52
0.66
0.64
0.45
0.14
-0.17
-0.37
-0.37
-0.20
0.11
0.44
0.71
0.85
0.80
0.59
0.27
-0.05
-0.25
-0.25
-0.04
0.30
0.65
0.92
1.06
1.07
0.99
0.86
0.67
0.42
0.12
-0.17
-0.37
-0.43
-0.39
-0.33
-0.39
-0.60
-0.92
-1.21
-1.34
-1.26
-1.02
-0.76
-0.58
-0.52
-0.50
-0.44
-0.27
-0.04
0.17
0.27
0.23
0.08
-0.09
-0.21
-0.23
-0.16
-0.01
0.18
0.38
0.55
0.66
0.67
0.59
0.44
0.26
0.08
-0.06
-0.16
-0.17
-0.08
0.11
0.36
0.57
0.66
0.58
0.37
0.11
-0.13
-0.31
-0.44
-0.55
-0.62
-0.65
-0.62
-0.55
-0.51
-0.53
-0.58
-0.60
-0.50
-0.25
0.11
0.47
0.75
0.91
0.95
0.90
0.78
0.59
0.33
0.06
-0.17
-0.27
-0.25
-0.16
-0.09
-0.13
-0.24
-0.34
-0.33
-0.17
0.09
0.32
0.41
0.31
0.08
-0.16
-0.29
-0.25
-0.07
0.15
0.33
0.38
0.30
0.11
-0.11
-0.29
-0.40
-0.41
-0.37
-0.32
-0.31
-0.37
-0.49
-0.62
-0.72
-0.73
-0.64
-0.46
-0.23
-0.00
0.19
0.32
0.38
0.40
0.39
0.38
0.36
0.35
0.35
0.36
0.40
0.44
0.47
0.48
0.46
0.43
0.42
0.45
0.52
0.59
0.62
0.56
0.42
0.25
0.09
-0.00
-0.05
-0.07
-0.10
-0.15
-0.21
-0.26
-0.30
-0.34
-0.38
-0.42
-0.43
-0.38
-0.24
-0.07
0.07
0.12
0.05
-0.14
-0.39
-0.61
-0.78
-0.88
-0.93
-0.96
-0.96
-0.87
-0.66
-0.31
0.15
0.64
1.03
1.25
1.23
1.00
0.65
0.33
0.13
0.10
0.18
0.28
0.32
0.29
0.25
0.24
0.28
0.33
0.29
0.14
-0.08
-0.23
-0.18
0.08
0.43
0.70
0.76
0.59
0.29
0.02
-0.10
-0.01
0.23
0.55
0.81
0.94
0.88
0.63
0.28
-0.05
-0.18
-0.02
0.42
0.98
1.42
1.52
1.23
0.72
0.21
0.01
0.23
0.83
1.66
2.56
3.39
3.93
3.77
2.44
-0.30
-4.17
-8.23
-11.22
-12.11
-10.64
-7.48
-3.86
-0.99
0.57
0.97
0.82
0.69
0.81
1.03
1.10
0.87
0.46
0.07
-0.07
0.07
0.42
0.73
0.83
0.64
0.23
-0.19
-0.38
-0.21
0.24
0.76
1.07
1.05
0.76
0.43
0.33
0.58
1.11
1.70
2.13
2.23
2.03
1.60
1.11
0.66
0.28
-0.02
-0.25
-0.42
-0.54
-0.59
-0.58
-0.54
-0.51
-0.52
-0.57
-0.66
-0.71
-0.66
-0.47
-0.14
0.23
0.50
0.57
0.39
0.05
-0.33
-0.60
-0.66
-0.49
-0.16
0.24
0.62
0.92
1.10
1.15
1.04
0.81
0.49
0.18
-0.02
-0.06
0.03
0.16
0.23
0.18
0.04
-0.09
-0.12
-0.00
0.19
0.34
0.32
0.10
-0.24
-0.58
-0.79
-0.81
-0.66
-0.42
-0.16
0.05
0.20
0.27
0.27
0.22
0.18
0.15
0.16
0.15
0.10
-0.02
-0.18
-0.28
-0.28
-0.15
0.02
0.12
0.07
-0.12
-0.35
-0.47
-0.40
-0.19
0.02
0.10
-0.00
-0.21
-0.38
-0.39
-0.19
0.15
0.49
0.71
0.74
0.62
0.39
0.12
-0.15
-0.39
-0.60
-0.74
-0.78
-0.71
-0.51
-0.23
0.05
0.23
0.24
0.08
-0.19
-0.47
-0.66
-0.74
-0.70
-0.58
-0.40
-0.18
0.08
0.33
0.52
0.61
0.61
0.56
0.52
0.52
0.53
0.50
0.40
0.25
0.11
0.05
0.07
0.15
0.21
0.20
0.10
-0.05
-0.21
-0.29
-0.26
-0.11
0.14
0.43
0.69
0.84
0.80
0.56
0.15
-0.32
-0.74
-0.95
-0.89
-0.57
-0.11
0.32
0.54
0.47
0.13
-0.32
-0.69
-0.84
-0.72
-0.41
-0.05
0.21
0.30
0.22
0.06
-0.09
-0.17
-0.16
-0.09
-0.01
0.05
0.06
0.03
-0.02
-0.08
-0.14
-0.17
-0.18
-0.14
-0.06
0.07
0.26
0.50
0.78
1.02
1.16
1.14
0.93
0.59
0.21
-0.07
-0.17
-0.10
0.07
0.21
0.21
0.05
-0.22
-0.52
-0.75
-0.85
-0.85
-0.79
-0.74
-0.70
-0.66
-0.54
-0.30
0.04
0.41
0.69
0.82
0.77
0.57
0.34
0.14
0.01
-0.06
-0.09
-0.08
-0.03
0.05
0.15
0.21
0.18
0.04
-0.16
-0.34
-0.42
-0.36
-0.22
-0.05
0.06
0.08
0.02
-0.07
-0.14
-0.16
-0.12
-0.09
-0.13
-0.26
-0.46
-0.65
-0.71
-0.56
-0.20
0.26
0.69
0.94
0.96
0.80
0.55
0.27
0.01
-0.24
-0.48
-0.68
-0.76
-0.67
-0.41
-0.08
0.18
0.27
0.16
-0.05
-0.22
-0.24
-0.11
0.08
0.22
0.22
0.08
-0.11
-0.21
-0.13
0.10
0.41
0.66
0.76
0.72
0.61
0.53
0.53
0.60
0.67
0.67
0.57
0.41
0.27
0.21
0.22
0.25
0.25
0.16
0.01
-0.16
-0.34
-0.51
-0.66
-0.76
-0.76
-0.62
-0.31
0.07
0.40
0.52
0.38
0.02
-0.42
-0.75
-0.86
-0.74
-0.49
-0.24
-0.08
-0.03
-0.03
-0.02
0.06
0.19
0.33
0.42
0.44
0.42
0.39
0.38
0.36
0.29
0.14
-0.08
-0.29
-0.41
-0.39
-0.26
-0.07
0.07
0.11
0.07
-0.00
-0.04
-0.04
-0.04
-0.10
-0.25
-0.42
-0.52
-0.47
-0.26
0.05
0.29
0.37
0.27
0.10
-0.01
0.04
0.23
0.45
0.58
0.57
0.45
0.30
0.20
0.16
0.12
0.03
-0.14
-0.35
-0.52
-0.60
-0.57
-0.49
-0.42
-0.39
-0.42
-0.48
-0.56
-0.61
-0.63
-0.60
-0.50
-0.35
-0.15
0.02
0.11
0.03
-0.21
-0.55
-0.85
-0.98
-0.83
-0.44
0.12
0.68
1.10
1.30
1.27
1.07
0.80
0.54
0.36
0.28
0.28
0.32
0.37
0.36
0.30
0.20
0.09
-0.03
-0.15
-0.30
-0.49
-0.71
-0.91
-1.02
-1.01
-0.86
-0.64
-0.40
-0.20
-0.00
0.23
0.52
0.86
1.13
1.25
1.17
0.93
0.66
0.47
0.41
0.44
0.43
0.30
0.04
-0.28
-0.51
-0.57
-0.44
-0.22
-0.01
0.11
0.18
0.25
0.36
0.50
0.58
0.52
0.31
0.05
-0.11
-0.09
0.07
0.24
0.28
0.13
-0.14
-0.43
-0.63
-0.73
-0.78
-0.84
-0.92
-0.96
-0.93
-0.78
-0.56
-0.36
-0.26
-0.31
-0.48
-0.68
-0.81
-0.77
-0.52
-0.08
0.41
0.82
1.05
1.07
0.94
0.75
0.61
0.52
0.48
0.42
0.35
0.26
0.18
0.12
0.04
-0.10
-0.32
-0.61
-0.91
-1.14
-1.25
-1.21
-1.05
-0.82
-0.58
-0.37
-0.17
0.05
0.31
0.60
0.87
1.07
1.16
1.15
1.06
0.93
0.77
0.59
0.39
0.21
0.07
0.00
0.03
0.14
0.30
0.46
0.53
0.47
0.26
-0.05
-0.37
-0.60
-0.69
-0.61
-0.42
-0.17
0.04
0.16
0.15
0.01
-0.23
-0.53
-0.83
-1.06
-1.14
-1.05
-0.80
-0.41
0.01
0.38
0.61
0.67
0.57
0.40
0.27
0.26
0.42
0.69
0.97
1.14
1.08
0.77
0.24
-0.36
-0.87
-1.15
-1.15
-0.90
-0.53
-0.17
0.10
0.29
0.40
0.49
0.57
0.60
0.55
0.38
0.11
-0.18
-0.42
-0.57
-0.63
-0.61
-0.54
-0.45
-0.34
-0.21
-0.07
0.05
0.13
0.14
0.09
-0.02
-0.16
-0.27
-0.33
-0.29
-0.17
0.00
0.16
0.23
0.22
0.16
0.12
0.14
0.26
0.41
0.56
0.66
0.68
0.65
0.56
0.41
0.19
-0.05
-0.24
-0.30
-0.21
-0.05
0.06
0.03
-0.13
-0.31
-0.37
-0.23
0.04
0.30
0.40
0.28
0.02
-0.25
-0.40
-0.42
-0.37
-0.35
-0.38
-0.42
-0.36
-0.13
0.25
0.67
0.94
0.95
0.64
0.13
-0.39
-0.72
-0.74
-0.46
-0.05
0.29
0.43
0.34
0.11
-0.11
-0.19
-0.13
0.04
0.20
0.31
0.36
0.39
0.44
0.51
0.58
0.59
0.49
0.28
-0.03
-0.37
-0.71
-0.98
-1.15
-1.20
-1.14
-1.04
-0.95
-0.91
-0.90
-0.89
-0.79
-0.60
-0.33
-0.02
0.26
0.49
0.66
0.75
0.76
0.70
0.58
0.40
0.22
0.05
-0.08
-0.15
-0.19
-0.20
-0.20
-0.18
-0.14
-0.06
0.08
0.27
0.47
0.60
0.59
0.40
0.11
-0.15
-0.27
-0.20
-0.01
0.17
0.22
0.10
-0.17
-0.45
-0.63
-0.62
-0.43
-0.12
0.22
0.50
0.67
0.69
0.55
0.32
0.07
-0.10
-0.14
-0.02
0.19
0.42
0.57
0.60
0.52
0.37
0.21
0.07
-0.04
-0.12
-0.18
-0.20
-0.18
-0.11
-0.01
0.10
0.20
0.30
0.37
0.44
0.49
0.53
0.55
0.54
0.50
0.40
0.24
0.04
-0.17
-0.32
-0.40
-0.40
-0.36
-0.34
-0.39
-0.55
-0.79
-1.06
-1.28
-1.40
-1.36
-1.15
-0.80
-0.38
0.01
0.29
0.40
0.36
0.26
0.20
0.25
0.43
0.70
0.96
1.13
1.16
1.06
0.87
0.64
0.41
0.19
-0.03
-0.24
-0.40
-0.47
-0.39
-0.16
0.17
0.48
0.61
0.43
-0.04
-0.67
-1.21
-1.44
-1.29
-0.91
-0.57
-0.46
-0.65
-0.94
-1.10
-0.93
-0.47
0.11
0.59
0.85
0.94
1.00
1.12
1.27
1.30
1.11
0.66
0.08
-0.44
-0.75
-0.81
-0.70
-0.55
-0.43
-0.35
-0.26
-0.08
0.17
0.43
0.60
0.59
0.40
0.08
-0.26
-0.51
-0.62
-0.56
-0.36
-0.08
0.22
0.46
0.63
0.69
0.67
0.59
0.47
0.33
0.16
-0.02
-0.19
-0.31
-0.38
-0.39
-0.38
-0.33
-0.27
-0.16
-0.01
0.14
0.23
0.23
0.16
0.05
0.01
0.07
0.21
0.35
0.38
0.28
0.08
-0.10
-0.18
-0.13
0.03
0.21
0.33
0.34
0.22
0.02
-0.23
-0.46
-0.61
-0.64
-0.56
-0.38
-0.16
0.03
0.15
0.19
0.16
0.12
0.10
0.10
0.11
0.10
0.04
-0.06
-0.19
-0.32
-0.41
-0.44
-0.43
-0.38
-0.33
-0.30
-0.28
-0.24
-0.16
-0.05
0.05
0.11
0.08
-0.03
-0.17
-0.26
-0.26
-0.16
-0.01
0.12
0.21
0.26
0.34
0.45
0.60
0.71
0.74
0.65
0.48
0.29
0.16
0.12
0.16
0.26
0.37
0.45
0.48
0.44
0.31
0.12
-0.10
-0.31
-0.45
-0.49
-0.44
-0.31
-0.16
-0.05
-0.03
-0.13
-0.38
-0.74
-1.15
-1.55
-1.82
-1.91
-1.79
-1.48
-1.03
-0.49
0.09
0.64
1.13
1.48
1.63
1.56
1.31
0.94
0.58
0.31
0.16
0.11
0.09
0.05
-0.04
-0.12
-0.16
-0.08
0.12
0.40
0.67
0.81
0.75
0.48
0.10
-0.27
-0.53
-0.65
-0.66
-0.64
-0.63
-0.62
-0.54
-0.38
-0.18
-0.02
0.02
-0.03
-0.11
-0.08
0.12
0.44
0.76
0.97
0.99
0.88
0.69
0.51
0.37
0.25
0.13
0.00
-0.11
-0.19
-0.22
-0.24
-0.25
-0.24
-0.18
-0.08
0.06
0.17
0.22
0.21
0.17
0.12
0.04
-0.09
-0.28
-0.48
-0.62
-0.62
-0.45
-0.17
0.13
0.38
0.54
0.64
0.67
0.62
0.47
0.22
-0.02
-0.15
-0.08
0.15
0.41
0.53
0.42
0.12
-0.22
-0.45
-0.48
-0.36
-0.20
-0.12
-0.14
-0.21
-0.25
-0.20
-0.08
0.03
0.05
-0.06
-0.25
-0.43
-0.52
-0.49
-0.33
-0.13
0.03
0.10
0.08
0.02
-0.02
0.01
0.07
0.11
0.06
-0.06
-0.23
-0.34
-0.31
-0.13
0.16
0.43
0.59
0.57
0.40
0.16
-0.08
-0.28
-0.44
-0.61
-0.81
-1.01
-1.15
-1.14
-0.96
-0.65
-0.34
-0.12
-0.05
-0.08
-0.12
-0.09
0.02
0.20
0.38
0.53
0.68
0.86
1.05
1.23
1.34
1.36
1.27
1.10
0.87
0.57
0.23
-0.13
-0.43
-0.62
-0.63
-0.49
-0.24
0.02
0.20
0.28
0.26
0.19
0.09
-0.02
-0.12
-0.23
-0.35
-0.45
-0.53
-0.58
-0.59
-0.58
-0.54
-0.50
-0.46
-0.41
-0.34
-0.27
-0.20
-0.13
-0.07
-0.03
-0.02
-0.05
-0.12
-0.21
-0.28
-0.28
-0.18
0.02
0.28
0.54
0.70
0.72
0.57
0.30
-0.01
-0.27
-0.41
-0.39
-0.25
-0.03
0.20
0.41
0.55
0.62
0.62
0.54
0.39
0.21
0.04
-0.06
-0.09
-0.05
0.00
0.01
-0.06
-0.17
-0.24
-0.19
-0.01
0.29
0.60
0.81
0.84
0.66
0.32
-0.12
-0.53
-0.82
-0.90
-0.76
-0.44
-0.03
0.35
0.61
0.71
0.65
0.49
0.29
0.08
-0.11
-0.28
-0.43
-0.54
-0.58
-0.52
-0.36
-0.12
0.12
0.30
0.35
0.23
-0.03
-0.37
-0.71
-0.96
-1.09
-1.08
-0.97
-0.80
-0.62
-0.44
-0.23
0.02
0.33
0.63
0.82
0.82
0.63
0.31
0.03
-0.11
-0.10
-0.01
0.04
-0.02
-0.15
-0.20
-0.02
0.42
1.02
1.58
1.86
1.76
1.31
0.70
0.15
-0.18
-0.24
-0.06
0.22
0.49
0.66
0.68
0.52
0.20
-0.19
-0.59
-0.88
-1.01
-0.96
-0.79
-0.60
-0.47
-0.45
-0.50
-0.58
-0.58
-0.46
-0.21
0.09
0.33
0.39
0.18
-0.26
-0.83
-1.32
-1.54
-1.40
-0.93
-0.28
0.32
0.73
0.88
0.85
0.74
0.67
0.65
0.65
0.59
0.44
0.18
-0.13
-0.41
-0.59
-0.62
-0.52
-0.32
-0.11
0.04
0.10
0.06
-0.05
-0.21
-0.36
-0.45
-0.43
-0.29
-0.05
0.24
0.49
0.59
0.50
0.25
-0.09
-0.41
-0.61
-0.65
-0.57
-0.42
-0.26
-0.13
-0.05
-0.03
-0.07
-0.18
-0.33
-0.47
-0.50
-0.36
-0.05
0.37
0.78
1.08
1.21
1.19
1.08
0.91
0.69
0.41
0.08
-0.24
-0.48
-0.55
-0.45
-0.23
0.04
0.24
0.34
0.33
0.27
0.25
0.33
0.51
0.73
0.87
0.83
0.58
0.16
-0.30
-0.68
-0.85
-0.79
-0.54
-0.18
0.18
0.44
0.57
0.57
0.43
0.18
-0.13
-0.45
-0.66
-0.71
-0.56
-0.30
-0.04
0.10
0.05
-0.12
-0.32
-0.44
-0.46
-0.45
-0.48
-0.57
-0.66
-0.64
-0.45
-0.12
0.23
0.48
0.55
0.44
0.24
0.02
-0.16
-0.27
-0.33
-0.33
-0.30
-0.24
-0.16
-0.09
-0.06
-0.12
-0.28
-0.47
-0.58
-0.51
-0.21
0.26
0.77
1.17
1.38
1.38
1.24
1.01
0.76
0.48
0.21
-0.02
-0.17
-0.23
-0.22
-0.18
-0.14
-0.10
-0.06
-0.01
-0.01
-0.09
-0.25
-0.46
-0.59
-0.54
-0.27
0.17
0.62
0.93
1.00
0.82
0.51
0.15
-0.15
-0.37
-0.54
-0.67
-0.73
-0.67
-0.43
-0.05
0.39
0.72
0.84
0.73
0.49
0.28
0.21
0.31
0.51
0.66
0.64
0.41
0.02
-0.42
-0.79
-1.03
-1.13
-1.13
-1.07
-0.97
-0.84
-0.68
-0.49
-0.32
-0.19
-0.14
-0.17
-0.28
-0.42
-0.51
-0.49
-0.32
-0.04
0.26
0.46
0.48
0.33
0.14
0.03
0.10
0.34
0.61
0.79
0.78
0.61
0.37
0.16
0.06
0.08
0.19
0.36
0.57
0.78
0.91
0.90
0.72
0.37
-0.07
-0.49
-0.82
-1.02
-1.10
-1.07
-0.93
-0.70
-0.43
-0.18
-0.03
-0.02
-0.14
-0.28
-0.36
-0.34
-0.24
-0.14
-0.12
-0.18
-0.27
-0.33
-0.29
-0.16
0.03
0.19
0.33
0.46
0.64
0.87
1.09
1.16
0.94
0.44
-0.20
-0.74
-0.96
-0.80
-0.39
0.05
0.31
0.36
0.25
0.11
0.01
-0.09
-0.20
-0.34
-0.40
-0.30
-0.02
0.33
0.60
0.67
0.52
0.25
0.00
-0.12
-0.12
-0.06
0.01
0.05
0.04
-0.01
-0.12
-0.28
-0.47
-0.61
-0.63
-0.47
-0.16
0.21
0.50
0.62
0.59
0.46
0.34
0.28
0.28
0.29
0.28
0.24
0.19
0.17
0.17
0.17
0.15
0.10
0.03
-0.05
-0.15
-0.26
-0.39
-0.51
-0.56
-0.52
-0.42
-0.30
-0.23
-0.21
-0.20
-0.17
-0.08
0.06
0.19
0.23
0.14
-0.08
-0.35
-0.55
-0.60
-0.47
-0.19
0.12
0.36
0.41
0.29
0.04
-0.21
-0.34
-0.29
-0.06
0.25
0.51
0.65
0.63
0.48
0.30
0.15
0.03
-0.07
-0.20
-0.36
-0.50
-0.53
-0.38
-0.04
0.38
0.76
0.96
0.93
0.70
0.38
0.08
-0.13
-0.25
-0.33
-0.41
-0.48
-0.53
-0.56
-0.56
-0.57
-0.60
-0.61
-0.57
-0.44
-0.23
0.01
0.22
0.36
0.45
0.54
0.63
0.70
0.68
0.53
0.24
-0.11
-0.40
-0.54
-0.48
-0.24
0.08
0.39
0.60
0.69
0.67
0.58
0.46
0.33
0.17
-0.00
-0.17
-0.28
-0.25
-0.05
0.28
0.66
0.93
0.99
0.78
0.38
-0.10
-0.53
-0.79
-0.87
-0.82
-0.70
-0.56
-0.44
-0.32
-0.22
-0.11
-0.01
0.07
0.14
0.23
0.35
0.49
0.63
0.70
0.61
0.33
-0.10
-0.53
-0.82
-0.83
-0.58
-0.20
0.11
0.21
0.07
-0.20
-0.45
-0.59
-0.60
-0.55
-0.53
-0.54
-0.58
-0.59
-0.55
-0.47
-0.36
-0.21
-0.02
0.18
0.34
0.38
0.29
0.11
-0.05
-0.11
-0.04
0.11
0.27
0.41
0.55
0.73
0.93
1.04
0.95
0.60
0.05
-0.53
-0.91
-0.94
-0.61
-0.10
0.38
0.66
0.67
0.47
0.19
-0.05
-0.18
-0.20
-0.13
-0.00
0.17
0.37
0.53
0.58
0.48
0.23
-0.09
-0.35
-0.43
-0.30
-0.06
0.19
0.34
0.36
0.31
0.26
0.26
0.30
0.29
0.16
-0.10
-0.45
-0.80
-1.08
-1.23
-1.27
-1.20
-1.01
-0.73
-0.39
-0.06
0.14
0.17
0.07
-0.07
-0.11
0.01
0.25
0.50
0.63
0.59
0.41
0.19
0.01
-0.09
-0.12
-0.12
-0.10
-0.04
0.04
0.15
0.24
0.30
0.30
0.28
0.25
0.25
0.27
0.27
0.23
0.13
-0.02
-0.16
-0.26
-0.29
-0.26
-0.21
-0.20
-0.24
-0.34
-0.41
-0.40
-0.23
0.07
0.43
0.75
0.95
1.02
1.00
0.96
0.93
0.90
0.82
0.65
0.38
0.07
-0.20
-0.37
-0.42
-0.38
-0.32
-0.31
-0.39
-0.54
-0.70
-0.79
-0.78
-0.68
-0.52
-0.36
-0.21
-0.11
-0.07
-0.09
-0.18
-0.35
-0.56
-0.72
-0.78
-0.68
-0.47
-0.20
0.06
0.24
0.35
0.41
0.42
0.43
0.42
0.44
0.49
0.57
0.66
0.69
0.60
0.37
0.03
-0.33
-0.59
-0.68
-0.56
-0.27
0.07
0.36
0.52
0.51
0.34
0.09
-0.19
-0.42
-0.55
-0.54
-0.40
-0.14
0.17
0.43
0.55
0.47
0.20
-0.15
-0.46
-0.59
-0.51
-0.26
0.04
0.26
0.33
0.23
0.05
-0.12
-0.22
-0.22
-0.13
-0.01
0.09
0.09
-0.02
-0.21
-0.40
-0.47
-0.33
0.01
0.43
0.78
0.90
0.74
0.38
-0.02
-0.29
-0.34
-0.16
0.13
0.39
0.50
0.41
0.16
-0.17
-0.46
-0.63
-0.65
-0.54
-0.32
-0.03
0.29
0.63
0.92
1.07
1.01
0.73
0.28
-0.21
-0.61
-0.82
-0.83
-0.70
-0.49
-0.26
-0.01
0.24
0.48
0.64
0.65
0.48
0.18
-0.16
-0.39
-0.47
-0.41
-0.30
-0.25
-0.27
-0.36
-0.41
-0.39
-0.25
-0.06
0.13
0.25
0.29
0.25
0.19
0.14
0.11
0.08
0.04
-0.04
-0.13
-0.20
-0.22
-0.15
-0.01
0.16
0.33
0.50
0.63
0.73
0.76
0.66
0.41
0.05
-0.30
-0.55
-0.63
-0.57
-0.46
-0.39
-0.39
-0.41
-0.39
-0.31
-0.20
-0.14
-0.16
-0.24
-0.28
-0.20
0.01
0.26
0.42
0.38
0.14
-0.18
-0.44
-0.50
-0.38
-0.13
0.10
0.20
0.15
-0.02
-0.21
-0.33
-0.34
-0.22
-0.05
0.13
0.28
0.36
0.41
0.45
0.54
0.70
0.88
1.02
1.05
0.93
0.69
0.40
0.14
-0.06
-0.23
-0.37
-0.49
-0.58
-0.60
-0.49
-0.30
-0.07
0.13
0.23
0.19
0.05
-0.16
-0.37
-0.53
-0.59
-0.55
-0.41
-0.21
0.01
0.20
0.31
0.32
0.24
0.10
-0.04
-0.16
-0.23
-0.24
-0.20
-0.12
0.02
0.21
0.40
0.49
0.42
0.20
-0.09
-0.29
-0.28
-0.08
0.19
0.32
0.20
-0.15
-0.54
-0.76
-0.67
-0.30
0.16
0.50
0.60
0.48
0.28
0.16
0.25
0.52
0.88
1.16
1.23
1.03
0.61
0.07
-0.41
-0.71
-0.74
-0.56
-0.31
-0.13
-0.12
-0.31
-0.58
-0.83
-0.95
-0.91
-0.79
-0.67
-0.62
-0.66
-0.73
-0.77
-0.73
-0.61
-0.45
-0.29
-0.15
-0.01
0.17
0.39
0.63
0.84
0.96
0.98
0.90
0.73
0.49
0.17
-0.23
-0.65
-1.02
-1.22
-1.17
-0.88
-0.44
0.01
0.33
0.46
0.42
0.29
0.16
0.13
0.24
0.46
0.74
0.95
1.00
0.87
0.62
0.38
0.25
0.25
0.33
0.37
0.29
0.10
-0.14
-0.33
-0.42
-0.41
-0.32
-0.18
-0.03
0.13
0.27
0.36
0.35
0.24
0.09
-0.04
-0.11
-0.07
0.02
0.12
0.15
0.10
-0.02
-0.16
-0.28
-0.37
-0.45
-0.53
-0.61
-0.69
-0.72
-0.69
-0.61
-0.55
-0.52
-0.52
-0.50
-0.39
-0.17
0.10
0.35
0.51
0.56
0.59
0.65
0.77
0.87
0.85
0.63
0.25
-0.16
-0.44
-0.47
-0.28
-0.02
0.17
0.19
0.05
-0.15
-0.30
-0.31
-0.18
0.04
0.27
0.44
0.53
0.52
0.43
0.31
0.19
0.11
0.07
0.09
0.16
0.27
0.39
0.48
0.51
0.45
0.30
0.12
-0.07
-0.22
-0.36
-0.51
-0.69
-0.88
-1.05
-1.14
-1.12
-0.96
-0.72
-0.44
-0.17
0.04
0.19
0.29
0.36
0.41
0.43
0.40
0.29
0.13
-0.02
-0.11
-0.08
0.02
0.10
0.11
0.01
-0.12
-0.17
-0.06
0.21
0.55
0.83
0.95
0.88
0.66
0.37
0.07
-0.19
-0.36
-0.41
-0.29
0.00
0.40
0.78
1.02
1.03
0.79
0.40
-0.03
-0.37
-0.55
-0.60
-0.56
-0.51
-0.49
-0.48
-0.45
-0.35
-0.17
0.07
0.29
0.40
0.34
0.15
-0.08
-0.23
-0.20
-0.01
0.26
0.49
0.59
0.52
0.35
0.16
0.02
-0.10
-0.21
-0.36
-0.55
-0.71
-0.78
-0.73
-0.60
-0.47
-0.42
-0.44
-0.48
-0.47
-0.38
-0.23
-0.11
-0.07
-0.13
-0.24
-0.34
-0.39
-0.36
-0.27
-0.15
-0.00
0.15
0.31
0.43
0.47
0.38
0.16
-0.13
-0.42
-0.63
-0.71
-0.66
-0.50
-0.26
0.01
0.26
0.44
0.48
0.40
0.23
0.10
0.10
0.30
0.64
0.96
1.11
0.97
0.59
0.13
-0.20
-0.28
-0.10
0.21
0.47
0.56
0.44
0.18
-0.10
-0.27
-0.29
-0.19
-0.03
0.11
0.19
0.21
0.18
0.12
0.06
-0.00
-0.09
-0.20
-0.32
-0.45
-0.53
-0.54
-0.47
-0.35
-0.19
-0.03
0.10
0.22
0.32
0.39
0.38
0.28
0.07
-0.20
-0.44
-0.60
-0.63
-0.56
-0.43
-0.29
-0.16
-0.02
0.15
0.33
0.49
0.57
0.52
0.34
0.08
-0.16
-0.27
-0.22
-0.02
0.20
0.33
0.29
0.12
-0.04
-0.09
0.05
0.31
0.56
