1479997406.00
64.000000
-0.00
-0.00
-0.00
-0.00
-0.00
-0.00
-0.00
-0.00
-0.00
-0.00
0.00
0.01
0.01
-0.00
-0.03
-0.05
-0.05
0.00
0.13
0.36
0.66
1.01
1.38
1.72
2.05
2.39
2.78
3.24
3.82
4.47
5.14
5.73
6.21
6.56
6.86
7.22
7.71
8.49
9.46
10.51
11.50
12.31
12.99
13.69
14.67
16.12
18.30
21.03
23.98
26.79
29.20
31.25
33.29
35.87
39.42
44.42
50.53
57.09
63.34
68.71
73.18
77.31
82.05
88.28
96.76
107.03
118.05
128.51
137.41
144.57
150.75
157.76
164.93
174.99
188.63
205.58
223.93
240.04
249.18
246.89
230.43
199.79
158.09
109.39
57.79
5.88
-45.67
-97.56
-150.79
-205.44
-260.03
-310.99
-354.20
-385.42
-401.66
-402.21
-388.86
-365.29
-335.83
-304.24
-272.82
-242.93
-215.21
-190.05
-167.94
-149.14
-133.33
-119.50
-106.33
-92.66
-78.17
-63.35
-49.29
-37.15
-27.62
-20.57
-15.19
-10.35
-5.09
0.92
7.33
13.33
18.13
21.36
23.21
24.32
25.40
26.89
28.81
30.80
32.40
33.25
33.29
32.70
31.83
31.00
30.36
29.86
29.34
28.63
27.64
26.40
25.08
23.84
22.76
21.83
20.97
20.09
19.18
18.32
17.60
17.05
16.60
16.10
15.42
14.52
13.50
12.56
11.86
11.49
11.41
11.44
11.40
11.16
10.71
10.14
9.62
9.25
9.05
8.92
8.71
8.35
7.87
7.42
7.17
7.22
7.51
7.83
7.96
7.77
7.27
6.62
5.99
5.50
5.14
4.87
4.61
4.35
4.15
4.06
4.13
4.32
4.52
4.57
4.39
3.99
3.47
2.99
2.69
2.63
2.76
2.98
3.18
3.29
3.32
3.31
3.29
3.26
3.20
3.05
2.82
2.56
2.32
2.18
2.15
2.20
2.26
2.21
2.02
1.69
1.35
1.10
1.00
1.04
1.11
1.12
1.01
0.83
0.67
0.59
0.63
0.74
0.84
0.88
0.85
0.78
0.74
0.76
0.87
1.05
1.24
1.38
1.41
1.31
1.10
0.86
0.70
0.70
0.90
1.25
1.61
1.84
1.81
1.48
0.96
0.42
0.08
0.05
0.36
0.86
1.34
1.61
1.58
1.32
1.01
0.81
0.81
1.01
1.30
1.60
1.84
2.01
2.15
2.25
2.28
2.17
1.88
1.44
0.96
0.56
0.35
0.36
0.51
0.68
0.75
0.70
0.58
0.50
0.56
0.78
1.09
1.37
1.49
1.39
1.12
0.80
0.56
0.47
0.49
0.55
0.57
0.54
0.51
0.53
0.67
0.88
1.08
1.16
1.08
0.87
0.68
0.63
0.75
0.99
1.18
1.20
1.02
0.73
0.48
0.40
0.50
0.67
0.76
0.65
0.35
-0.01
-0.26
-0.31
-0.14
0.15
0.44
0.67
0.84
1.03
1.32
1.77
2.33
2.90
3.31
3.43
3.23
2.78
2.25
1.77
1.47
1.36
1.40
1.48
1.50
1.37
1.09
0.70
0.33
0.11
0.13
0.36
0.68
0.92
0.95
0.74
0.37
-0.07
-0.49
-0.88
-1.22
-1.52
-1.71
-1.74
-1.55
-1.20
-0.77
-0.39
-0.14
-0.04
-0.04
-0.08
-0.14
-0.21
-0.29
-0.34
-0.28
-0.05
0.32
0.75
1.07
1.16
1.02
0.74
0.47
0.33
0.34
0.43
0.50
0.47
0.36
0.24
0.20
0.27
0.42
0.57
0.63
0.54
0.35
0.14
0.02
0.04
0.18
0.39
0.56
0.66
0.70
0.72
0.72
0.70
0.65
0.56
0.51
0.57
0.78
1.13
1.53
1.84
1.95
1.85
1.60
1.32
1.15
1.12
1.19
1.29
1.32
1.27
1.18
1.12
1.15
1.27
1.40
1.47
1.43
1.32
1.19
1.12
1.12
1.14
1.13
1.05
0.92
0.81
0.77
0.81
0.91
1.02
1.08
1.12
1.17
1.28
1.45
1.66
1.89
2.12
2.36
2.64
2.96
3.28
3.56
3.74
3.81
3.76
3.59
3.29
2.85
2.33
1.81
1.38
1.09
0.89
0.64
0.21
-0.47
-1.30
-2.09
-2.63
-2.82
-2.70
-2.44
-2.20
-2.14
-2.29
-2.65
-3.21
-3.97
-4.90
-5.94
-6.94
-7.68
-8.02
-7.95
-7.62
-7.29
-7.20
-7.44
-7.92
-8.42
-8.72
-8.69
-8.33
-7.75
-7.09
-6.46
-5.88
-5.35
-4.85
-4.38
-3.98
-3.68
-3.53
-3.50
-3.53
-3.53
-3.42
-3.13
-2.61
-1.87
-0.90
0.25
1.53
2.90
4.24
5.47
6.48
7.22
7.66
7.82
7.73
7.40
6.90
6.27
5.64
5.11
4.77
4.64
4.64
4.66
4.60
4.45
4.27
4.20
4.30
4.53
4.80
4.98
4.99
4.91
4.82
4.81
4.87
4.96
4.96
4.86
4.66
4.41
4.11
3.74
3.26
2.68
2.03
1.38
0.77
0.20
-0.33
-0.85
-1.32
-1.70
-1.97
-2.09
-2.13
-2.14
-2.17
-2.20
-2.23
-2.25
-2.28
-2.37
-2.51
-2.68
-2.78
-2.76
-2.60
-2.36
-2.13
-1.98
-1.92
-1.90
-1.90
-1.90
-1.94
-2.02
-2.09
-2.04
-1.74
-1.18
-0.48
0.14
0.45
0.37
-0.01
-0.45
-0.71
-0.64
-0.29
0.16
0.51
0.64
0.57
0.41
0.29
0.25
0.27
0.26
0.19
0.08
0.02
0.10
0.31
0.57
0.78
0.86
0.84
0.78
0.78
0.87
1.01
1.14
1.22
1.20
1.11
0.98
0.85
0.76
0.75
0.83
0.98
1.16
1.30
1.36
1.34
1.29
1.27
1.33
1.48
1.68
1.89
2.05
2.13
2.11
2.04
1.96
1.89
1.88
1.89
1.89
1.84
1.71
1.52
1.30
1.11
0.96
0.85
0.74
0.63
0.48
0.31
0.16
0.03
-0.07
-0.22
-0.53
-1.15
-2.20
-3.68
-5.53
-7.53
-9.40
-10.90
-11.79
-11.97
-11.43
-10.29
-8.74
-7.09
-5.60
-4.50
-3.89
-3.74
-3.87
-4.05
-4.06
-3.75
-3.10
-2.22
-1.26
-0.41
0.25
0.73
1.13
1.54
2.04
2.58
3.07
3.45
3.71
3.92
4.17
4.51
4.85
5.07
5.03
4.68
4.12
3.49
2.97
2.64
2.46
2.33
2.15
1.83
1.36
0.83
0.33
-0.03
-0.18
-0.14
0.00
0.12
0.11
-0.04
-0.27
-0.47
-0.57
-0.52
-0.39
-0.24
-0.11
-0.01
0.08
0.22
0.41
0.61
0.81
0.96
1.02
0.95
0.76
0.43
-0.01
-0.49
-0.95
-1.31
-1.51
-1.48
-1.25
-0.88
-0.47
-0.16
0.02
0.04
-0.04
-0.15
-0.25
-0.36
-0.51
-0.70
-0.91
-1.02
-0.92
-0.56
0.00
0.62
1.10
1.32
1.26
0.97
0.62
0.31
0.11
0.02
-0.04
-0.12
-0.22
-0.31
-0.38
-0.43
-0.49
-0.60
-0.72
-0.79
-0.73
-0.51
-0.20
0.06
0.13
-0.03
-0.33
-0.60
-0.66
-0.45
-0.01
0.54
1.03
1.36
1.49
1.45
1.28
1.03
0.72
0.41
0.14
-0.03
-0.07
0.03
0.19
0.34
0.36
0.23
-0.02
-0.28
-0.47
-0.56
-0.56
-0.57
-0.64
-0.76
-0.88
-0.93
-0.85
-0.67
-0.46
-0.28
-0.15
-0.04
0.11
0.34
0.64
0.96
1.21
1.32
1.24
1.00
0.66
0.30
0.01
-0.18
-0.28
-0.29
-0.27
-0.25
-0.25
-0.29
-0.36
-0.41
-0.43
-0.38
-0.25
-0.08
0.10
0.24
0.35
0.43
0.52
0.62
0.76
0.92
1.07
1.19
1.23
1.14
0.94
0.68
0.44
0.30
0.28
0.31
0.29
0.17
-0.04
-0.21
-0.23
-0.06
0.25
0.55
0.70
0.66
0.47
0.27
0.17
0.19
0.28
0.34
0.30
0.18
0.03
-0.06
-0.12
-0.21
-0.43
-0.85
-1.40
-1.92
-2.25
-2.25
-1.90
-1.31
-0.65
-0.10
0.21
0.25
0.05
-0.30
-0.67
-0.97
-1.13
-1.12
-0.99
-0.80
-0.63
-0.53
-0.50
-0.49
-0.46
-0.38
-0.28
-0.22
-0.25
-0.38
-0.56
-0.67
-0.63
-0.46
-0.24
-0.07
-0.04
-0.15
-0.30
-0.39
-0.34
-0.15
0.09
0.30
0.39
0.31
0.05
-0.37
-0.90
-1.43
-1.83
-1.99
-1.85
-1.45
-0.90
-0.34
0.12
0.42
0.56
0.52
0.34
0.04
-0.29
-0.54
-0.54
-0.24
0.34
1.03
1.62
1.95
1.98
1.78
1.51
1.32
1.25
1.27
1.30
1.27
1.20
1.13
1.14
1.24
1.36
1.40
1.30
1.05
0.76
0.59
0.68
1.05
1.59
2.13
2.51
2.70
2.73
2.72
2.72
2.71
2.61
2.35
1.97
1.60
1.38
1.36
1.47
1.54
1.43
1.13
0.75
0.47
0.35
0.35
0.32
0.14
-0.20
-0.61
-0.94
-1.12
-1.13
-1.06
-0.98
-0.95
-0.97
-1.01
-1.04
-1.05
-1.00
-0.88
-0.69
-0.48
-0.34
-0.33
-0.50
-0.79
-1.12
-1.37
-1.48
-1.43
-1.30
-1.14
-1.04
-1.01
-1.05
-1.11
-1.13
-1.11
-1.06
-0.98
-0.88
-0.73
-0.48
-0.13
0.26
0.58
0.69
0.54
0.17
-0.30
-0.71
-0.96
-1.02
-0.92
-0.71
-0.44
-0.12
0.22
0.53
0.75
0.82
0.73
0.53
0.31
0.14
0.06
0.04
0.04
-0.01
-0.13
-0.31
-0.47
-0.54
-0.49
-0.37
-0.26
-0.25
-0.34
-0.49
-0.60
-0.58
-0.44
-0.22
-0.01
0.16
0.27
0.34
0.38
0.35
0.24
0.05
-0.16
-0.28
-0.22
0.03
0.38
0.70
0.87
0.85
0.67
0.42
0.16
-0.08
-0.35
-0.64
-0.94
-1.15
-1.18
-0.97
-0.59
-0.18
0.12
0.22
0.11
-0.12
-0.36
-0.51
-0.56
-0.56
-0.55
-0.58
-0.66
-0.79
-0.94
-1.04
-1.07
-0.97
-0.70
-0.26
0.28
0.82
1.22
1.38
1.27
0.96
0.57
0.23
0.02
-0.04
-0.01
0.06
0.09
0.06
-0.05
-0.21
-0.38
-0.51
-0.54
-0.47
-0.35
-0.25
-0.20
-0.18
-0.16
-0.12
-0.07
-0.08
-0.21
-0.45
-0.73
-0.92
-0.94
-0.78
-0.59
-0.56
-0.83
-1.41
-2.14
-2.79
-3.18
-3.25
-3.09
-2.85
-2.65
-2.52
-2.41
-2.23
-1.94
-1.56
-1.16
-0.79
-0.46
-0.17
0.10
0.35
0.58
0.80
1.09
1.54
2.17
2.96
3.75
4.38
4.73
4.77
4.53
4.10
3.59
3.04
2.49
1.92
1.32
0.69
0.07
-0.51
-0.96
-1.24
-1.36
-1.38
-1.43
-1.62
-1.99
-2.52
-3.09
-3.54
-3.77
-3.75
-3.56
-3.32
-3.18
-3.22
-3.40
-3.61
-3.64
-3.34
-2.63
-1.56
-0.29
0.95
1.98
2.73
3.22
3.53
3.74
3.88
3.94
3.93
3.83
3.68
3.49
3.30
3.12
2.98
2.87
2.80
2.76
2.71
2.62
2.45
2.18
1.81
1.39
0.97
0.61
0.33
0.16
0.04
-0.07
-0.25
-0.52
-0.82
-1.05
-1.09
-0.87
-0.46
0.02
0.37
0.48
0.33
0.04
-0.25
-0.40
-0.43
-0.41
-0.47
-0.65
-0.91
-1.10
-1.11
-0.89
-0.55
-0.24
-0.13
-0.28
-0.67
-1.12
-1.50
-1.67
-1.63
-1.42
-1.17
-0.99
-0.92
-0.99
-1.15
-1.37
-1.60
-1.80
-1.94
-2.00
-1.97
-1.83
-1.62
-1.33
-0.99
-0.60
-0.16
0.36
0.99
1.74
2.53
3.26
3.80
4.04
4.02
3.83
3.66
3.67
3.89
4.24
4.57
4.77
4.81
4.75
4.67
4.66
4.74
4.88
5.06
5.20
5.25
5.17
4.90
4.50
4.04
3.62
3.27
2.96
2.54
1.85
0.84
-0.46
-1.93
-3.47
-5.04
-6.66
-8.34
-9.99
-11.44
-12.54
-13.26
-13.67
-13.94
-14.09
-13.96
-13.21
-11.53
-8.81
-5.28
-1.46
2.06
4.76
6.41
7.01
6.81
6.18
5.51
5.20
5.46
6.29
7.36
8.18
8.24
7.37
5.87
4.46
4.02
5.18
7.96
11.72
15.27
17.41
17.42
15.41
12.54
10.81
12.39
18.74
29.59
42.42
52.83
56.21
49.45
32.38
7.91
-18.99
-42.99
-59.97
-67.81
-66.56
-58.15
-46.27
-35.66
-30.91
-34.60
-45.75
-59.63
-69.54
-69.92
-59.06
-39.87
-18.21
0.16
12.15
18.07
20.38
21.52
22.50
22.70
21.01
17.22
12.52
8.75
7.52
9.18
12.72
16.33
18.38
18.11
15.91
12.85
10.08
8.35
7.78
8.06
8.70
9.21
9.25
8.57
7.02
4.71
2.14
0.11
-0.54
0.57
3.07
5.83
7.42
6.74
3.65
-0.83
-4.91
-6.69
-5.01
-0.13
6.27
11.65
13.61
11.02
4.82
-2.10
-5.78
-2.53
9.41
28.84
51.55
71.23
81.02
75.36
51.72
11.78
-38.14
-88.07
-126.62
-144.41
-137.49
-109.18
-69.31
-30.53
-3.39
7.56
4.75
-4.81
-13.74
-17.90
-17.51
-15.62
-15.15
-16.86
-19.18
-19.92
-18.16
-15.21
-13.91
-16.73
-24.13
-34.20
-43.64
-49.41
-50.16
-46.71
-41.43
-36.94
-34.91
-35.41
-37.07
-37.69
-35.24
-28.58
-17.82
-4.19
10.51
24.58
36.93
47.27
56.02
63.86
71.28
78.30
84.46
89.07
91.60
92.01
90.86
89.11
87.82
87.70
88.95
91.18
93.52
94.74
93.17
86.77
73.32
51.10
19.92
-17.67
-56.38
-89.12
-108.93
-111.27
-95.40
-64.50
-24.62
16.57
51.35
73.24
78.42
66.75
41.91
10.43
-20.52
-45.69
-63.18
-74.27
-81.86
-88.36
-94.61
-100.10
-103.98
-106.20
-107.70
-109.69
-112.65
-116.02
-118.46
-118.58
-115.74
-109.98
-101.87
-92.17
-81.33
-69.35
-55.87
-40.31
-22.12
-1.15
22.17
46.75
71.10
93.71
113.44
129.86
143.17
153.85
162.40
169.02
173.52
175.41
173.92
168.30
158.05
143.10
124.15
102.77
81.51
63.40
51.23
46.46
48.32
53.61
57.42
54.59
41.61
18.06
-12.89
-45.51
-73.52
-92.54
-101.43
-102.18
-98.02
-91.35
-82.16
-68.47
-47.60
-18.02
19.54
61.98
104.32
140.24
162.47
163.83
139.24
88.55
18.67
-56.90
-121.92
-163.27
-175.94
-164.65
-140.72
-116.43
-100.03
-93.61
-94.49
-98.62
-103.36
-108.32
-114.10
-120.48
-125.42
-125.89
-119.46
-105.98
-87.82
-68.98
-52.93
-41.01
-31.84
-22.12
-8.41
11.06
35.57
62.16
86.97
106.85
120.38
128.10
131.81
133.49
134.40
134.57
133.06
128.49
119.83
106.99
91.12
74.30
58.88
46.62
38.12
32.63
28.58
24.51
19.92
15.73
13.78
15.77
21.94
30.41
37.60
39.40
32.57
15.52
-11.44
-46.33
-85.47
-123.62
-154.34
-171.26
-170.00
-149.71
-113.92
-69.36
-23.32
18.67
54.17
83.13
105.91
121.63
127.89
122.10
103.43
73.97
38.35
2.06
-30.63
-57.82
-79.89
-98.38
-114.54
-128.55
-139.56
-146.53
-149.02
-147.69
-143.90
-139.13
-134.21
-129.02
-122.68
-114.08
-102.47
-87.74
-70.31
-50.83
-29.85
-7.76
15.14
38.38
61.27
82.93
102.45
118.96
131.79
140.48
144.88
145.20
142.01
136.30
129.30
122.23
116.10
111.40
108.06
105.54
103.05
99.96
96.15
92.11
88.61
86.06
83.90
80.40
73.05
59.50
38.59
11.36
-18.72
-46.34
-65.60
-71.56
-61.62
-36.27
0.83
43.21
82.66
111.04
122.47
115.29
92.55
60.78
27.36
-2.21
-25.97
-45.22
-62.55
-79.72
-96.52
-111.20
-122.09
-128.85
-132.70
-135.46
-138.22
-140.71
-141.63
-139.68
-134.54
-127.09
-118.93
-111.68
-106.20
-102.38
-99.38
-96.03
-91.38
-84.92
-76.65
-66.95
-56.28
-45.02
-33.39
-21.47
-9.35
2.82
14.80
26.25
36.88
46.44
54.72
61.42
66.17
68.62
68.61
66.44
62.91
59.18
56.35
55.06
55.27
56.38
57.68
58.81
60.04
62.16
66.11
72.58
81.64
92.54
103.70
112.84
117.09
113.20
98.14
70.42
31.62
-12.91
-54.72
-84.50
-95.19
-84.30
-54.61
-12.76
33.28
76.61
112.55
138.47
152.74
154.07
141.66
116.19
80.50
39.40
-1.62
-38.05
-67.63
-90.36
-107.80
-121.84
-133.70
-143.64
-151.24
-155.92
-157.52
-156.51
-153.86
-150.59
-147.45
-144.65
-141.85
-138.50
-134.13
-128.51
-121.66
-113.56
-103.97
-92.32
-77.90
-60.19
-39.27
-15.99
8.10
31.23
51.95
69.64
84.61
97.87
110.57
123.45
136.58
149.36
160.87
170.10
176.23
178.62
176.89
170.97
161.41
149.52
137.29
126.84
119.40
114.63
110.49
103.95
92.41
75.14
53.64
30.86
9.90
-7.54
-21.19
-31.28
-37.15
-36.80
-27.90
-9.89
14.44
38.92
55.98
59.49
46.83
19.22
-19.58
-64.87
-111.94
-156.08
-192.32
-216.06
-224.35
-217.45
-199.17
-175.57
-152.83
-135.01
-123.30
-116.61
-113.16
-111.53
-111.09
-111.65
-112.67
-113.13
-111.78
-107.60
-100.22
-90.08
-78.25
-66.09
-54.70
-44.26
-33.77
-21.22
-4.36
18.27
46.48
78.32
110.71
140.56
165.75
185.57
200.69
212.19
220.82
226.61
229.02
227.47
221.76
212.26
199.55
183.88
165.22
143.33
118.45
91.89
66.24
44.76
30.08
23.07
22.40
25.03
27.58
27.52
23.69
16.05
5.10
-8.45
-23.38
-37.60
-47.97
-51.15
-44.85
-29.32
-7.71
14.68
32.07
39.93
35.78
19.31
-7.90
-42.69
-80.74
-117.22
-147.62
-168.72
-179.14
-179.31
-170.84
-155.95
-137.00
-116.39
-96.49
-79.39
-66.40
-57.57
-51.70
-46.99
-41.92
-36.04
-29.84
-24.37
-20.43
-18.21
-17.21
-16.63
-15.66
-13.89
-11.41
-8.75
-6.59
-5.48
-5.62
-6.74
-8.25
-9.53
-10.22
-10.35
-10.33
-10.75
-12.13
-14.69
-18.15
-21.85
-25.03
-27.13
-28.18
-28.84
-30.16
-33.16
-38.22
-44.73
-51.16
-55.63
-56.69
-54.13
-49.24
-44.39
-41.95
-43.06
-46.74
-49.97
-48.77
-39.86
-22.15
2.55
30.13
55.72
75.59
88.50
96.10
101.96
110.42
124.94
147.00
175.67
207.46
236.50
255.33
257.14
238.14
200.20
151.56
104.64
71.09
56.49
57.66
64.27
64.18
49.61
21.04
-13.77
-44.57
-64.31
-72.29
-73.16
-73.12
-75.91
-81.36
-86.79
-89.87
-90.83
-92.26
-97.36
-107.47
-120.83
-133.19
-139.41
-135.67
-121.52
-100.89
-81.16
-70.75
-75.46
-95.40
-124.16
-151.13
-165.95
-163.10
-143.88
-115.13
-85.36
-60.56
-42.21
-28.04
-14.72
-0.33
14.71
28.67
40.23
49.59
58.28
68.23
80.47
94.53
108.67
120.54
128.42
132.01
132.56
132.59
134.91
141.63
153.40
168.97
185.48
199.20
206.53
204.88
193.85
174.99
151.30
125.97
101.05
76.70
51.23
22.01
-13.03
-54.17
-99.29
-143.91
-182.28
-209.00
-220.55
-215.98
-197.70
-170.59
-140.43
-112.16
-88.75
-71.02
-58.27
-49.02
-41.57
-34.18
-25.29
-13.94
-0.55
12.67
22.04
23.58
15.07
-3.10
-27.75
-54.17
-77.80
-95.63
-106.64
-111.31
-110.72
-105.72
-96.78
-84.18
-68.33
-49.85
-29.34
-7.23
16.18
40.42
64.64
87.50
107.74
124.87
139.83
154.81
172.21
193.21
216.81
239.82
258.06
268.47
269.70
262.36
248.08
228.46
204.47
176.74
146.18
114.30
83.05
54.06
28.05
4.56
-17.62
-39.77
-62.50
-85.54
-108.44
-131.77
-157.38
-187.52
-223.20
-262.05
-298.31
-324.06
-332.05
-318.80
-285.61
-238.81
-187.02
-137.86
-95.59
-60.92
-32.32
-7.99
13.01
30.93
46.24
60.39
75.47
92.85
111.73
128.69
138.66
136.93
121.36
93.43
57.84
20.74
-12.50
-38.79
-57.61
-70.08
-77.82
-81.96
-83.02
-81.23
-76.93
-70.80
-63.66
-56.06
-48.12
-39.50
-29.71
-18.56
-6.32
6.27
18.26
28.84
37.54
44.33
49.47
53.42
56.68
59.71
62.77
65.82
68.43
70.05
70.38
69.87
70.14
73.61
82.45
97.16
115.60
133.14
144.06
143.81
130.96
108.12
80.91
55.98
38.44
30.16
29.53
32.16
32.37
24.49
4.45
-28.47
-70.75
-114.47
-148.90
-163.63
-152.36
-115.79
-63.71
-13.10
16.95
12.15
-31.27
-104.59
-189.57
-265.49
-316.64
-337.23
-331.39
-308.99
-279.87
-249.73
-219.49
-186.78
-149.52
-107.61
-62.80
-17.41
27.11
70.07
110.46
145.57
171.07
182.80
179.18
163.00
140.77
120.23
107.00
102.49
104.18
108.11
111.86
116.27
124.52
139.59
161.81
188.11
213.49
233.48
246.07
251.46
250.70
243.95
230.45
208.66
177.87
139.39
96.66
54.20
16.00
-15.64
-40.47
-59.68
-75.01
-88.08
-100.34
-113.69
-130.37
-152.22
-179.24
-208.69
-234.83
-250.70
-250.66
-231.67
-195.64
-148.77
-99.58
-56.78
-27.51
-16.17
-23.54
-46.44
-78.06
-109.79
-133.59
-144.63
-142.63
-131.33
-116.27
-102.26
-91.90
-85.61
-82.60
-81.66
-81.38
-79.82
-74.31
-61.94
-40.96
-12.14
20.84
52.03
75.72
88.92
92.68
91.59
91.43
96.47
107.70
123.03
139.05
153.10
164.43
173.87
182.68
191.49
199.99
207.29
212.48
215.15
214.83
211.10
203.77
193.02
179.46
163.75
146.07
125.90
102.67
76.43
48.67
21.98
-1.04
-19.33
-34.08
-48.26
-64.95
-85.42
-108.20
-129.53
-145.20
-152.23
-150.21
-141.14
-128.45
-116.43
-108.90
-109.12
-119.51
-140.71
-170.29
-202.33
-228.38
-239.53
-230.65
-202.56
-161.87
-118.10
-79.68
-50.89
-31.30
-17.56
-6.24
3.93
12.03
16.22
15.63
11.26
5.66
1.50
0.59
3.44
9.58
18.66
30.63
45.00
59.65
70.57
72.94
63.52
42.76
15.30
-11.66
-31.44
-40.56
-39.41
-30.62
-16.61
1.95
25.82
55.54
89.88
125.64
158.74
185.84
205.26
216.90
221.80
220.73
213.71
200.28
180.05
153.42
121.77
87.22
52.06
18.38
-12.46
-39.85
-63.84
-84.82
-103.19
-119.14
-132.32
-142.19
-148.14
-150.08
-149.14
-147.90
-149.75
-156.62
-167.26
-176.76
-178.07
-164.92
-135.11
-91.46
-41.73
4.90
41.61
66.03
79.97
87.14
90.71
91.87
90.34
85.66
78.64
71.57
67.40
68.41
75.19
86.29
98.21
106.42
106.50
95.53
73.13
41.57
5.12
-31.49
-64.23
-90.57
-109.36
-120.61
-125.06
-123.86
-118.43
-110.35
-100.88
-90.73
-79.79
-67.16
-51.70
-32.37
-8.47
20.00
52.18
86.20
119.15
147.61
168.60
180.52
183.54
179.25
169.39
154.98
136.03
112.14
83.61
52.01
20.44
-7.78
-30.26
-46.61
-58.49
-69.19
-82.62
-101.90
-127.81
-157.44
-184.78
-201.62
-201.34
-181.70
-145.95
-101.44
-56.64
-18.21
10.26
27.60
33.77
28.96
14.13
-7.97
-32.36
-52.91
-64.45
-64.78
-55.19
-39.24
-20.93
-3.50
11.05
21.33
26.29
25.18
18.34
7.48
-4.65
-15.14
-22.03
-24.56
-23.78
-21.73
-20.55
-21.41
-23.75
-25.27
-22.93
-14.42
0.53
19.75
39.59
56.67
69.49
78.79
86.57
94.44
102.56
109.73
114.46
116.18
115.69
114.45
113.48
112.59
110.50
105.51
96.66
84.32
70.03
55.70
42.71
31.46
21.44
11.88
2.36
-6.60
-13.79
-17.85
-17.94
-14.07
-7.14
1.37
9.64
15.72
17.91
14.88
6.31
-6.96
-22.76
-38.54
-52.24
-63.49
-74.28
-87.64
-105.49
-126.61
-146.24
-157.99
-157.07
-142.90
-119.35
-93.09
-70.06
-52.75
-39.79
-27.92
-14.71
-0.06
14.24
26.41
36.14
44.66
53.17
61.13
65.69
63.02
50.51
28.31
-0.27
-30.22
-56.37
-75.49
-86.69
-91.05
-90.66
-87.65
-83.55
-79.24
-74.99
-70.65
-65.81
-59.98
-52.76
-43.90
-33.38
-21.40
-8.39
5.03
18.14
30.21
40.79
49.81
57.62
64.76
71.69
78.40
84.34
88.48
89.65
87.05
80.68
71.55
61.49
52.71
46.83
44.22
43.67
42.90
39.63
32.85
23.50
14.44
9.49
11.98
23.44
42.94
67.30
91.88
111.95
123.79
125.63
117.81
102.57
83.01
62.18
42.21
23.82
6.25
-12.36
-34.19
-60.20
-88.90
-115.95
-135.15
-140.62
-129.30
-102.18
-64.39
-23.16
15.18
47.36
73.37
94.84
112.82
126.39
133.27
131.52
121.39
105.91
89.56
75.90
65.53
55.73
41.67
19.34
-12.03
-48.89
-84.52
-111.85
-126.36
-127.82
-120.16
-109.71
-102.67
-103.11
-111.99
-127.43
-145.36
-160.40
-166.94
-160.31
-138.53
-103.91
-63.44
-27.24
-4.78
-0.65
-12.11
-30.06
-43.36
-44.19
-31.41
-10.30
11.12
26.73
35.03
38.66
41.47
45.52
49.90
51.82
49.09
41.84
32.83
25.77
23.32
25.67
30.80
35.49
37.06
34.54
28.77
21.62
14.73
8.50
1.94
-6.61
-18.43
-33.45
-49.98
-65.31
-76.66
-82.17
-81.45
-75.51
-66.30
-56.07
-46.68
-39.29
-34.19
-30.88
-28.30
-25.21
-20.48
-13.49
-4.33
6.20
16.82
26.10
32.94
36.87
38.15
37.59
36.22
34.85
33.84
33.11
32.47
31.89
31.66
32.32
34.38
38.00
42.95
48.65
54.52
60.35
66.39
73.20
81.30
90.71
100.77
110.21
117.45
121.02
120.04
114.40
104.67
91.89
77.24
61.70
45.96
30.54
15.75
1.94
-10.37
-20.47
-27.69
-31.48
-31.83
-29.56
-26.33
-24.42
-26.30
-34.14
-49.21
-71.17
-97.30
-122.35
-139.29
-141.45
-125.10
-91.48
-47.02
-1.23
36.75
61.29
71.76
71.57
65.85
59.07
53.81
50.86
50.09
51.43
54.87
60.29
67.33
75.21
82.82
89.16
93.63
96.49
98.66
100.76
102.08
99.90
90.59
71.86
45.02
15.37
-9.45
-22.92
-22.73
-11.95
2.36
12.13
11.23
-2.85
-28.99
-63.48
-101.26
-137.16
-166.84
-187.56
-198.61
-201.00
-196.58
-187.26
-174.58
-160.21
-146.36
-135.62
-130.06
-130.15
-134.31
-139.45
-142.31
-140.95
-135.48
-127.71
-119.93
-113.58
-108.22
-101.47
-89.94
-70.73
-42.81
-7.76
30.76
68.26
101.03
127.27
147.12
161.95
173.18
181.60
187.34
190.51
191.76
192.38
193.77
196.58
200.14
202.47
200.98
193.57
179.47
159.65
136.48
112.84
91.02
71.93
54.85
37.82
18.59
-4.37
-31.24
-60.83
-91.12
-120.06
-146.19
-168.79
-187.64
-202.64
-213.55
-219.96
-221.59
-218.55
-211.57
-201.97
-191.33
-181.11
-172.18
-164.63
-157.97
-151.48
-144.57
-136.76
-127.36
-115.23
-98.86
-77.11
-50.02
-19.22
12.44
41.96
67.36
88.11
104.82
118.25
128.61
135.43
138.16
136.87
132.54
126.70
120.70
115.07
109.34
102.36
92.91
80.25
64.56
46.86
28.79
12.11
-1.86
-12.54
-20.13
-25.35
-28.94
-31.27
-32.18
-31.19
-27.90
-22.34
-15.12
-7.14
0.69
7.81
14.14
19.88
25.27
30.36
34.93
38.61
41.11
42.38
42.63
42.25
41.61
40.91
40.12
39.05
37.43
35.07
31.95
28.31
24.62
21.41
19.10
17.84
17.43
17.45
17.38
16.91
15.96
14.75
13.59
12.74
12.25
12.01
11.83
11.54
11.03
10.17
8.80
6.72
3.78
0.05
-4.15
-8.30
-11.87
-14.53
-16.22
-17.12
-17.50
-17.60
-17.49
-17.18
-16.60
-15.72
-14.58
-13.24
-11.77
-10.27
-8.78
-7.29
-5.76
-4.12
-2.35
-0.50
1.24
2.65
3.47
3.58
3.00
1.95
0.78
-0.08
-0.24
0.50
2.14
4.39
6.77
8.72
9.73
9.48
7.85
5.00
1.22
-3.05
-7.37
-11.30
-14.55
-17.02
-18.76
-19.98
-20.93
-21.82
-22.77
-23.84
-25.02
-26.20
-27.24
-27.96
-28.24
-28.03
-27.41
-26.57
-25.73
-25.09
-24.74
-24.68
-24.77
-24.77
-24.32
-22.97
-20.35
-16.30
-10.94
-4.74
1.60
7.38
12.11
15.58
17.82
19.03
19.39
19.06
18.20
16.96
15.53
14.07
12.65
11.25
9.80
8.24
6.60
5.01
3.64
2.66
2.12
1.98
2.10
2.34
2.52
2.54
2.33
1.89
1.26
0.56
-0.08
-0.54
-0.75
-0.74
-0.64
-0.66
-0.96
-1.65
-2.72
-4.01
-5.33
-6.46
-7.28
-7.80
-8.13
-8.45
-8.92
-9.62
-10.50
-11.40
-12.14
-12.58
-12.69
-12.60
-12.53
-12.73
-13.32
-14.29
-15.43
-16.38
-16.83
-16.53
-15.42
-13.61
-11.33
-8.87
-6.49
-4.31
-2.20
0.25
3.65
8.50
14.98
22.70
30.79
38.17
43.88
47.45
48.87
48.46
46.58
43.44
39.15
33.90
28.10
22.40
17.50
13.87
11.58
10.29
9.42
8.43
7.02
5.17
3.05
0.86
-1.28
-3.35
-5.33
-7.15
-8.66
-9.69
-10.16
-10.14
-9.81
-9.40
-9.11
-8.99
-9.01
-9.05
-9.00
-8.77
-8.35
-7.77
-7.12
-6.48
-5.92
-5.53
-5.31
-5.27
-5.32
-5.34
-5.20
-4.84
-4.28
-3.64
-3.03
-2.53
-2.16
-1.91
-1.73
-1.61
-1.56
-1.55
-1.54
-1.48
-1.31
-1.04
-0.71
-0.42
-0.22
-0.14
-0.17
-0.28
-0.48
-0.74
-1.02
-1.29
-1.49
-1.60
-1.61
-1.57
-1.54
-1.59
-1.74
-1.99
-2.30
-2.62
-2.93
-3.22
-3.50
-3.75
-3.95
-4.06
-4.06
-3.92
-3.67
-3.36
-3.02
-2.70
-2.44
-2.30
-2.33
-2.53
-2.85
-3.17
-3.34
-3.27
-2.92
-2.33
-1.61
-0.83
-0.07
0.64
1.31
1.96
2.65
3.45
4.38
5.44
6.51
7.45
8.13
8.51
8.64
8.63
8.61
8.71
8.98
9.48
10.24
11.27
12.50
13.79
14.96
15.80
16.24
16.32
16.24
16.20
16.34
16.68
17.10
17.40
17.35
16.76
15.50
13.53
10.92
7.86
4.62
1.52
-1.14
-3.19
-4.61
-5.53
-6.16
-6.67
-7.19
-7.74
-8.29
-8.81
-9.27
-9.69
-10.10
-10.47
-10.74
-10.82
-10.60
-10.03
-9.17
-8.12
-7.00
-5.91
-4.90
-3.96
-3.08
-2.31
-1.70
-1.29
-1.06
-0.94
-0.81
-0.62
-0.36
-0.10
0.03
-0.01
-0.26
-0.67
-1.20
-1.81
-2.45
-3.04
-3.48
-3.68
-3.60
-3.25
-2.72
-2.10
-1.48
-0.93
-0.49
-0.21
-0.06
-0.01
0.03
0.14
0.40
0.80
1.29
1.75
2.08
2.19
2.07
1.74
1.29
0.79
0.32
-0.07
-0.35
-0.49
-0.52
-0.46
-0.37
-0.32
-0.38
-0.54
-0.79
-1.04
-1.22
-1.29
-1.28
-1.25
-1.28
-1.41
-1.64
-1.95
-2.28
-2.58
-2.87
-3.13
-3.39
-3.63
-3.86
-4.05
-4.22
-4.43
-4.77
-5.31
-6.08
-6.99
-7.88
-8.57
-8.96
-9.09
-9.09
-9.13
-9.29
-9.47
-9.50
-9.16
-8.29
-6.82
-4.71
-1.96
1.41
5.29
9.42
13.36
16.63
18.83
19.82
19.76
18.98
17.83
16.56
15.23
13.78
12.15
10.36
8.52
6.78
5.25
3.97
2.90
2.01
1.29
0.77
0.49
0.46
0.63
0.88
1.10
1.20
1.15
0.99
0.76
0.53
0.34
0.21
0.19
0.26
0.43
0.64
0.82
0.90
0.85
0.68
0.45
0.23
0.07
0.05
0.20
0.52
0.97
1.49
1.98
2.38
2.67
2.87
3.04
3.19
3.33
3.44
3.50
3.52
3.54
3.54
3.47
3.21
2.70
1.89
0.87
-0.24
-1.32
-2.24
-2.95
-3.42
-3.71
-3.91
-4.12
-4.44
-4.93
-5.55
-6.21
-6.82
-7.29
-7.60
-7.75
-7.74
-7.59
-7.28
-6.80
-6.20
-5.55
-4.95
-4.47
-4.14
-3.91
-3.70
-3.47
-3.19
-2.89
-2.63
-2.48
-2.44
-2.50
-2.59
-2.67
-2.73
-2.79
-2.89
-3.07
-3.29
-3.47
-3.51
-3.37
-3.06
-2.67
-2.32
-2.12
-2.14
-2.35
-2.68
-3.00
-3.23
-3.38
-3.50
-3.72
-4.11
-4.65
-5.22
-5.66
-5.85
-5.80
-5.62
-5.53
-5.72
-6.28
-7.20
-8.35
-9.59
-10.83
-12.05
-13.30
-14.63
-16.09
-17.66
-19.26
-20.86
-22.41
-23.90
-25.27
-26.37
-27.04
-27.15
-26.73
-26.05
-25.52
-25.64
-26.75
-29.05
-32.44
-36.74
-41.70
-47.12
-52.91
-59.01
-65.32
-71.62
-77.47
-82.26
-85.34
-86.09
-84.19
-79.60
-72.61
-63.75
-53.59
-42.70
-31.48
-20.23
-9.14
1.73
12.43
23.09
33.80
44.42
54.45
63.04
69.34
72.86
73.79
73.07
72.02
71.86
73.27
76.10
79.55
82.49
83.81
82.63
78.51
71.70
63.22
54.90
48.76
46.30
47.68
51.53
55.46
57.06
54.98
49.35
41.48
33.11
25.53
19.25
14.21
10.19
7.18
5.38
4.94
5.65
6.96
8.16
8.73
8.55
7.94
7.43
7.44
8.11
9.19
10.15
10.37
9.37
6.97
3.41
-0.71
-4.64
-7.81
-10.02
-11.55
-12.94
-14.70
-16.98
-19.51
-21.84
-23.64
-24.91
-25.94
-26.97
-28.01
-28.67
-28.41
-26.93
-24.36
-21.28
-18.58
-17.02
-16.93
-18.09
-19.80
-21.03
-20.76
-18.25
-13.29
-6.32
1.72
9.60
16.23
20.94
23.55
24.38
23.93
22.73
21.12
19.30
17.42
15.64
14.21
13.33
13.09
13.34
13.74
13.85
13.35
12.09
10.20
7.90
5.45
3.03
0.68
-1.57
-3.64
-5.39
-6.67
-7.35
-7.42
-7.03
-6.38
-5.66
-5.01
-4.45
-3.98
-3.59
-3.27
-3.02
-2.84
-2.72
-2.59
-2.37
-2.04
-1.61
-1.16
-0.79
-0.55
-0.44
-0.40
-0.39
-0.37
-0.35
-0.37
-0.43
-0.51
-0.56
-0.52
-0.40
-0.24
-0.12
-0.12
-0.27
-0.54
-0.88
-1.19
-1.40
-1.49
-1.46
-1.36
-1.31
-1.41
-1.74
-2.23
-2.77
-3.16
-3.28
-3.09
-2.70
-2.22
-1.79
-1.44
-1.12
-0.75
-0.30
0.22
0.71
1.07
1.22
1.18
1.00
0.78
0.63
0.59
0.67
0.85
1.03
1.15
1.18
1.12
1.05
1.03
1.09
1.20
1.28
1.27
1.14
0.92
0.68
0.46
0.29
0.15
0.02
-0.11
-0.23
-0.29
-0.25
-0.10
0.16
0.51
0.88
1.23
1.48
1.59
1.54
1.34
1.00
0.57
0.10
-0.34
-0.72
-1.05
-1.36
-1.68
-2.05
-2.43
-2.72
-2.85
-2.76
-2.50
-2.18
-1.96
-1.93
-2.11
-2.42
-2.74
-2.93
-2.97
-3.01
-3.32
-4.23
-5.94
-8.42
-11.39
-14.37
-16.76
-18.01
-17.62
-15.34
-11.18
-5.57
0.68
6.63
11.37
14.36
15.55
15.26
14.02
12.32
10.53
8.86
7.50
6.56
6.10
6.00
6.05
6.00
5.73
5.24
4.67
4.13
3.66
3.16
2.51
1.67
0.76
0.03
-0.24
0.08
0.87
1.74
2.23
2.00
0.98
-0.52
-2.00
-2.91
-3.00
-2.38
-1.59
-1.39
-2.38
-4.75
-8.12
-11.68
-14.52
-16.00
-16.03
-15.12
-14.09
-13.77
-14.71
-17.01
-20.31
-23.90
-26.84
-28.20
-27.55
-25.61
-24.68
-28.34
-40.37
-63.01
-95.43
-133.37
-170.22
-199.22
-215.74
-218.52
-209.52
-192.45
-171.11
-148.18
-125.00
-102.06
-79.72
-58.63
-39.73
-23.83
-11.25
-1.64
6.15
13.71
22.51
33.09
44.73
55.92
65.31
72.95
80.56
90.80
105.74
125.48
147.91
170.03
189.74
206.95
222.88
238.31
252.06
261.61
265.40
265.36
267.44
279.00
304.45
341.88
382.73
414.82
427.84
417.32
385.38
338.40
283.43
225.84
169.04
115.80
68.60
29.46
-1.63
-27.86
-55.02
-89.28
-134.12
-188.38
-245.89
-297.53
-334.14
-349.71
-343.43
-319.86
-287.14
-253.93
-226.35
-206.53
-192.99
-182.96
-174.89
-169.84
-170.86
-181.14
-201.94
-231.62
-265.93
-299.16
-325.29
-338.83
-335.59
-313.64
-274.29
-222.23
-164.31
-107.25
-55.54
-10.81
27.12
58.09
80.76
92.89
93.18
82.93
66.36
49.04
35.58
27.85
24.79
23.51
21.43
17.81
14.02
12.79
16.86
27.83
45.64
69.07
96.40
126.01
156.54
186.68
214.96
239.78
260.54
277.73
293.04
308.60
325.83
344.30
361.11
372.07
372.78
360.44
334.48
296.43
249.03
195.40
138.61
81.56
27.05
-22.40
-65.19
-101.08
-131.00
-156.55
-179.07
-198.89
-215.12
-226.12
-230.44
-227.67
-219.14
-207.72
-196.95
-189.86
-187.74
-189.48
-191.83
-190.70
-183.07
-168.81
-151.35
-136.75
-131.68
-140.85
-165.32
-201.85
-243.23
-279.39
-299.28
-293.47
-257.20
-192.77
-109.63
-21.84
56.68
116.77
156.32
179.11
191.04
196.77
197.56
192.71
181.99
167.33
152.32
140.04
131.10
123.14
112.21
95.32
72.72
48.53
29.45
21.94
29.33
50.52
80.06
109.68
130.66
136.40
124.57
98.16
65.01
35.87
21.23
27.98
57.19
103.79
158.25
209.76
249.28
271.45
274.93
261.40
234.16
197.16
154.45
109.95
67.13
28.51
-4.71
-32.74
-56.98
-79.44
-101.94
-125.41
-149.70
-173.34
-194.11
-209.74
-218.56
-220.30
-216.29
-209.12
-201.87
-196.97
-195.15
-194.94
-193.38
-187.39
-175.75
-160.20
-145.29
-136.88
-140.02
-157.29
-187.58
-226.01
-264.54
-293.24
-302.65
-285.81
-240.69
-171.22
-86.76
0.23
77.60
136.75
174.15
190.78
190.16
176.08
151.62
119.27
81.89
43.45
8.75
-17.68
-32.99
-36.83
-31.52
-20.89
-8.73
2.69
13.31
24.90
39.99
60.53
86.88
117.69
150.50
182.10
209.03
227.63
234.69
228.79
211.96
190.53
173.84
170.91
186.25
217.24
254.74
286.66
303.17
300.20
279.88
247.81
209.43
167.78
123.53
77.01
30.07
-13.68
-50.14
-76.58
-92.92
-101.56
-106.25
-110.62
-117.11
-126.69
-138.70
-151.08
-160.99
-165.84
-164.72
-159.26
-153.60
-152.94
-161.28
-179.56
-204.83
-230.98
-250.72
-257.90
-249.80
-228.08
-198.70
-170.24
-151.15
-147.09
-159.38
-185.34
-219.98
-257.51
-291.82
-315.78
-321.21
-300.68
-250.96
-175.97
-86.81
2.04
78.51
136.99
178.47
207.09
225.58
233.61
229.47
213.40
189.53
164.60
144.43
130.96
121.86
112.95
101.19
87.10
74.47
68.42
73.46
91.55
121.11
156.85
190.95
215.45
225.34
221.01
208.73
198.37
199.20
215.30
243.81
275.94
300.71
309.56
299.39
272.70
235.26
193.02
149.86
107.22
65.33
24.80
-12.68
-45.06
-71.73
-94.43
-116.84
-142.36
-171.97
-203.52
-232.98
-256.59
-272.41
-280.39
-281.13
-274.74
-260.68
-238.95
-211.17
-180.63
-150.92
-124.31
-101.13
-80.83
-63.80
-52.41
-50.23
-59.88
-81.09
-110.54
-143.46
-175.95
-206.05
-233.22
-256.24
-271.79
-275.05
-261.82
-231.23
-186.86
-135.43
-84.04
-37.54
2.20
35.25
61.72
80.44
89.43
87.77
77.23
62.61
50.01
44.37
47.56
58.10
72.46
87.42
101.78
116.69
134.60
157.50
185.54
216.79
247.66
273.81
291.12
296.46
288.58
269.90
246.06
225.14
215.14
220.69
240.61
267.85
292.15
303.47
296.50
271.78
234.31
190.44
144.89
99.70
55.07
10.98
-31.74
-71.44
-106.74
-137.27
-163.59
-186.50
-206.17
-221.91
-232.79
-238.45
-239.57
-237.72
-234.41
-230.11
-223.80
-213.72
-198.90
-180.53
-162.37
-149.69
-147.22
-156.98
-177.61
-205.20
-234.81
-261.56
-280.55
-286.56
-274.48
-241.12
-187.46
-119.45
-46.36
22.85
83.02
133.78
177.43
215.43
246.12
265.47
269.93
259.50
238.82
215.66
197.87
190.42
194.02
205.38
218.15
225.09
220.39
202.05
173.22
141.54
116.00
102.89
102.68
109.89
115.95
113.53
99.92
77.48
51.33
25.90
2.63
-19.94
-44.05
-70.13
-95.89
-117.28
-130.80
-135.29
-132.52
-126.24
-120.25
-116.87
-116.19
-116.68
-116.31
-113.67
-108.36
-100.70
-91.18
-80.25
-68.44
-56.92
-47.76
-43.56
-46.81
-59.30
-81.97
-114.77
-156.36
-203.28
-249.30
-285.85
-303.94
-297.10
-264.12
-209.97
-144.42
-78.97
-23.43
16.32
38.87
46.41
43.30
34.45
24.17
15.43
9.63
7.02
7.50
11.51
20.29
35.39
57.82
87.21
121.76
158.42
193.18
221.28
237.75
238.90
224.73
200.19
174.78
159.52
162.38
184.44
219.05
254.48
278.61
283.90
269.39
239.48
200.50
157.40
112.50
66.35
19.64
-25.53
-65.96
-98.85
-123.23
-140.39
-153.08
-163.98
-174.36
-183.81
-190.82
-193.55
-190.80
-182.15
-168.10
-150.05
-130.45
-112.65
-100.43
-96.96
-103.57
-119.23
-140.98
-165.28
-189.04
-209.78
-225.04
-232.08
-228.21
-211.98
-184.29
-148.17
-107.44
-64.70
-20.24
27.10
77.80
129.51
176.76
212.53
231.70
233.03
219.63
197.82
175.06
157.96
151.06
156.43
173.27
197.84
223.28
240.56
240.99
219.42
177.16
122.70
69.51
31.28
16.75
26.75
54.16
87.41
115.23
130.36
130.67
117.71
94.57
64.16
28.98
-8.35
-44.52
-76.03
-100.18
-116.37
-126.42
-134.01
-142.91
-155.20
-170.27
-184.86
-194.36
-194.56
-183.42
-162.18
-135.34
-109.46
-90.98
-84.11
-89.34
-103.39
-120.74
-135.96
-145.82
-150.02
-150.70
-150.93
-153.12
-157.76
-162.76
-163.47
-153.63
-127.04
-80.06
-13.89
65.24
147.23
221.14
278.16
313.60
327.07
321.16
299.81
267.52
229.38
191.15
159.20
139.08
133.72
142.00
158.18
172.95
175.64
157.46
114.63
50.29
-25.66
-99.32
-157.15
-190.14
-196.36
-180.52
-150.82
-115.26
-79.18
-45.33
-15.61
7.02
18.44
15.14
-3.31
-32.77
-65.29
-92.01
-106.49
-106.91
-96.10
-79.90
-64.29
-53.11
-47.16
-44.88
-43.99
-43.01
-41.98
-41.93
-43.72
-46.78
-48.89
-47.20
-39.82
-27.56
-14.35
-6.06
-8.32
-24.22
-53.11
-90.77
-130.96
-167.26
-194.43
-208.95
-209.11
-194.86
-167.61
-129.87
-84.62
-34.32
19.46
75.20
130.25
179.97
218.37
240.16
243.57
231.69
211.74
192.07
178.91
174.29
176.16
180.14
181.74
178.03
168.43
154.81
140.82
130.61
127.09
130.22
136.45
139.74
134.20
116.91
89.49
57.14
25.82
-0.83
-23.22
-44.82
-69.34
-97.90
-127.75
-153.43
-169.52
-173.26
-165.78
-151.20
-134.41
-118.87
-105.76
-94.75
-85.57
-79.23
-78.04
-84.33
-98.95
-120.68
-146.87
-175.00
-203.54
-231.49
-256.97
-276.05
-282.70
-270.54
-235.75
-179.61
-109.02
-34.68
32.23
83.28
114.91
128.59
129.53
124.72
121.10
124.50
138.86
165.74
203.63
247.51
288.99
317.83
325.05
306.58
266.27
215.73
170.93
146.30
148.91
175.21
212.23
242.59
251.17
230.18
180.56
110.12
30.04
-48.68
-117.27
-170.16
-205.03
-222.68
-226.05
-219.32
-206.78
-192.24
-178.83
-169.07
-164.73
-166.09
-171.00
-174.70
-171.67
-158.12
-134.71
-107.33
-84.89
-75.69
-84.02
-108.89
-145.05
-184.85
-219.71
-240.71
-239.50
-210.25
-152.71
-74.35
10.42
84.78
135.97
160.34
163.75
157.71
152.74
153.91
160.34
167.95
173.02
174.40
173.15
171.08
169.37
168.21
167.32
166.92
167.85
170.71
175.14
178.58
176.06
161.70
131.42
86.01
32.59
-16.70
-48.66
-53.97
-31.12
13.03
65.81
113.33
144.89
155.65
146.44
121.75
87.26
47.90
7.26
-32.17
-68.41
-99.66
-124.52
-142.44
-154.17
-161.66
-167.26
-172.72
-178.58
-183.89
-186.67
-184.52
-175.67
-159.89
-139.14
-117.49
-100.09
-91.54
-94.04
-106.60
-125.62
-146.81
-167.33
-186.44
-204.18
-219.14
-227.06
-221.77
-198.15
-155.53
-98.34
-34.64
27.04
80.21
121.24
148.40
160.78
157.86
140.93
114.29
85.14
61.34
48.42
47.12
53.64
62.11
67.75
69.38
69.60
73.25
84.74
105.90
135.24
168.41
199.25
220.96
227.50
215.35
185.26
143.66
101.21
69.86
58.72
70.59
100.76
138.97
173.12
193.64
196.07
181.04
152.42
114.84
72.10
26.92
-18.20
-60.36
-96.30
-123.53
-141.56
-152.40
-159.95
-168.01
-178.57
-190.83
-201.74
-207.72
-206.46
-198.05
-184.57
-168.77
-152.80
-137.65
-123.84
-112.12
-103.92
-101.08
-104.85
-115.29
-131.33
-151.55
-174.70
-199.23
-221.88
-236.58
-235.33
-211.16
-161.99
-93.11
-16.39
54.06
106.90
137.12
146.49
141.36
129.20
116.03
105.63
99.96
99.98
105.75
116.17
128.87
140.77
149.13
152.61
152.06
150.34
151.13
157.57
171.00
190.22
211.27
228.00
233.41
221.91
191.81
147.55
98.53
56.69
32.75
32.51
54.86
92.26
133.13
165.94
182.45
179.54
159.08
126.23
87.03
46.47
7.59
-28.33
-60.82
-89.57
-114.07
-133.86
-149.11
-160.87
-170.83
-180.54
-190.80
-201.07
-209.85
-215.34
-216.30
-212.52
-204.91
-195.15
-184.94
-175.18
-165.47
-154.24
-139.75
-121.48
-101.00
-81.91
-68.72
-64.92
-71.58
-87.24
-109.17
-134.75
-161.89
-187.93
-208.24
-215.79
-203.10
-166.02
-106.60
-33.85
38.82
98.47
137.02
153.45
152.74
142.78
130.85
121.70
117.17
117.29
121.51
129.34
140.12
152.80
166.15
178.97
191.12
203.47
217.25
233.01
249.67
264.11
271.57
266.68
244.69
203.25
144.69
75.53
6.05
-51.90
-88.30
-98.24
-83.43
-50.92
-10.01
31.30
68.13
98.46
121.16
134.20
134.75
120.84
93.31
56.41
16.36
-21.19
-53.17
-79.36
-101.36
-120.77
-138.08
-152.77
-164.24
-172.66
-179.09
-184.66
-189.22
-191.01
-187.59
-177.26
-160.79
-141.84
-125.75
-117.48
-119.73
-132.30
-152.73
-177.19
-200.87
-217.91
-221.51
-205.63
-167.45
-109.76
-41.32
25.52
79.23
113.01
126.19
122.73
108.25
87.73
64.91
43.07
25.85
16.87
18.28
29.25
45.91
62.94
75.96
83.52
87.51
91.70
99.84
113.98
133.83
157.12
180.42
199.73
211.30
212.85
204.45
189.23
172.83
161.30
158.52
163.96
172.31
175.68
166.92
143.06
106.39
62.93
19.36
-19.78
-53.27
-82.25
-108.31
-131.90
-152.08
-167.23
-176.39
-179.99
-179.82
-178.24
-177.13
-177.27
-178.39
-179.52
-179.51
-177.48
-172.62
-164.12
-151.39
-134.53
-115.07
-96.08
-81.52
-75.04
-79.08
-94.25
-119.07
-149.72
-179.68
-200.19
-202.03
-178.61
-129.04
-59.54
18.38
92.21
152.85
197.05
226.47
244.57
253.69
254.81
248.20
235.18
218.59
201.61
186.09
171.80
157.34
141.90
126.45
113.60
106.30
106.03
111.45
118.12
119.45
108.86
82.77
42.90
-3.03
-43.09
-65.11
-61.45
-32.43
13.50
62.86
102.28
123.11
123.50
107.50
81.85
52.45
22.58
-7.07
-36.80
-66.33
-94.13
-117.85
-135.52
-146.62
-152.67
-156.30
-160.13
-165.57
-172.36
-178.68
-182.05
-180.59
-173.67
-162.00
-146.92
-129.76
-111.49
-92.95
-75.35
-60.59
-51.03
-48.56
-53.72
-65.31
-80.87
-97.74
-114.08
-129.28
-143.59
-156.89
-167.50
-171.81
-165.09
-143.39
-105.77
-55.43
0.82
54.75
99.52
131.87
152.17
163.29
168.89
171.72
173.52
175.98
181.40
192.22
210.07
234.29
261.54
286.34
302.23
303.22
284.82
245.03
185.52
112.40
35.92
-31.54
-78.91
-99.83
-94.21
-67.54
-28.17
15.72
58.14
95.35
124.56
142.72
146.66
134.67
107.99
71.19
30.73
-7.35
-39.52
-65.28
-86.29
-104.82
-122.36
-139.13
-154.41
-167.23
-176.91
-183.14
-185.94
-185.59
-182.49
-177.18
-170.41
-163.15
-156.46
-151.13
-147.33
-144.42
-141.07
-135.70
-127.12
-115.05
-100.24
-84.12
-67.98
-52.25
-36.08
-17.77
4.53
31.80
63.71
98.52
133.54
165.55
191.19
207.11
210.70
201.07
180.21
153.25
127.39
109.05
101.21
102.22
107.12
110.74
110.64
108.14
106.56
108.37
112.57
114.64
108.87
91.66
63.78
30.04
-3.22
-31.18
-52.44
-68.71
-82.81
-96.56
-109.58
-119.84
-125.04
-124.05
-117.62
-108.14
-98.60
-91.43
-87.65
-86.69
-86.90
-86.32
-83.46
-77.90
-70.40
-62.65
-56.90
-55.37
-59.71
-70.51
-86.82
-106.19
-124.99
-139.29
-145.94
-143.38
-131.95
-113.43
-90.22
-64.37
-37.01
-8.29
22.30
55.63
92.23
131.53
170.95
205.59
229.14
236.21
225.34
200.40
169.92
144.00
130.43
131.73
144.69
162.23
176.42
181.33
174.21
155.23
126.40
90.55
50.81
10.54
-26.84
-58.28
-81.60
-96.07
-102.64
-103.53
-101.57
-99.27
-98.16
-98.38
-98.93
-98.19
-94.73
-87.98
-78.44
-67.44
-56.71
-47.73
-41.35
-37.61
-35.91
-35.38
-35.05
-34.21
-32.45
-29.67
-25.99
-21.62
-16.74
-11.52
-6.21
-1.34
2.29
3.87
2.99
-0.04
-4.15
-7.86
-9.99
-10.07
-8.60
-6.64
-5.33
-5.31
-6.48
-8.18
-9.49
-9.63
-8.16
-5.12
-0.99
3.43
7.28
9.79
10.68
10.18
9.01
8.07
8.04
9.08
10.75
12.24
12.77
12.15
10.90
10.25
11.60
15.74
22.35
29.99
36.51
40.04
39.96
37.16
33.73
31.94
33.24
37.65
43.94
50.32
54.90
56.01
52.15
42.54
27.92
11.17
-2.97
-9.47
-5.44
7.94
25.37
39.59
44.97
40.27
29.22
18.43
13.82
17.58
26.90
35.67
37.32
28.33
10.18
-10.98
-26.72
-29.79
-17.02
9.73
44.73
80.67
111.01
131.29
139.09
133.50
114.49
82.95
41.17
-6.92
-56.34
-102.14
-140.70
-170.40
-191.64
-206.02
-215.63
-222.28
-226.86
-229.25
-228.49
-223.23
-212.50
-195.96
-174.20
-148.51
-120.54
-91.85
-63.66
-36.77
-11.59
11.78
33.30
52.80
69.62
82.55
90.23
91.93
88.10
80.16
69.98
59.14
48.47
38.46
29.89
24.21
23.00
27.02
35.50
45.61
53.62
56.54
53.34
45.01
33.56
20.73
7.26
-6.95
-21.98
-37.34
-51.90
-64.52
-74.64
-82.46
-88.90
-94.78
-100.16
-104.30
-105.62
-102.34
-93.09
-77.24
-54.65
-25.83
7.95
44.42
80.52
113.23
140.69
162.87
181.27
197.74
212.85
225.13
231.52
229.06
216.70
196.12
171.24
146.46
125.00
108.03
95.02
84.73
75.95
67.76
59.08
48.36
33.77
13.66
-12.51
-43.65
-77.34
-110.95
-142.83
-172.94
-202.30
-231.73
-260.66
-286.68
-306.42
-316.90
-316.72
-306.28
-287.20
-261.55
-231.50
-199.49
-168.42
-141.43
-120.96
-107.66
-99.93
-94.45
-87.78
-77.70
-63.95
-47.62
-29.89
-10.82
10.87
36.92
68.02
102.62
136.93
166.10
186.10
195.25
194.71
187.63
177.63
167.32
157.72
148.62
139.55
130.49
121.97
114.65
108.73
103.71
98.66
92.82
86.04
78.84
72.07
66.51
62.35
59.13
55.93
51.79
46.15
39.17
31.65
24.63
18.92
14.74
11.56
8.29
3.66
-3.24
-12.54
-23.33
-33.92
-42.36
-47.15
-47.75
-44.62
-38.98
-32.21
-25.38
-19.13
-13.72
-9.24
-5.73
-3.02
-0.67
2.02
5.69
10.77
17.33
25.41
35.45
48.25
64.47
84.00
105.30
125.29
140.29
146.99
143.01
127.46
100.47
63.29
18.29
-31.28
-81.65
-129.18
-171.03
-205.39
-231.25
-248.01
-255.05
-251.79
-237.95
-213.77
-180.34
-139.74
-95.06
-50.32
-9.99
22.20
44.84
59.72
71.47
85.52
105.05
129.39
154.40
174.52
185.94
188.72
186.73
185.62
189.71
199.93
213.47
225.39
230.96
227.28
213.60
190.09
156.85
114.76
66.01
15.24
-31.46
-68.75
-94.80
-112.05
-125.63
-140.10
-156.77
-173.36
-186.13
-192.82
-194.52
-194.67
-196.17
-198.85
-198.85
-190.37
-168.61
-132.07
-83.13
-27.34
28.00
75.79
110.49
129.66
134.39
128.13
115.44
99.59
81.09
57.78
26.83
-12.46
-56.33
-97.11
-126.05
-137.32
-130.85
-112.52
-91.24
-74.61
-65.81
-62.50
-59.11
-50.38
-34.24
-12.83
9.14
27.02
38.57
44.75
48.89
54.87
65.31
80.33
97.09
110.80
116.66
111.99
97.85
78.65
60.41
47.89
42.41
41.46
40.24
33.96
19.35
-4.22
-34.77
-67.94
-97.36
-115.85
-117.48
-100.22
-67.95
-30.02
2.02
18.98
17.82
2.66
-17.84
-34.95
-43.62
-43.42
-36.82
-26.44
-13.45
2.22
20.51
40.19
58.91
74.06
83.94
87.96
86.18
78.70
65.77
48.50
29.29
11.37
-2.18
-9.91
-12.59
-12.62
-12.84
-15.52
-22.61
-35.68
-55.58
-81.29
-108.72
-130.76
-139.51
-129.88
-102.69
-65.43
-29.47
-5.59
0.71
-8.88
-27.18
-45.57
-57.96
-62.26
-59.43
-50.99
-37.27
-17.56
8.18
37.70
66.50
89.43
103.41
108.74
108.41
105.82
102.48
97.47
88.25
73.17
53.21
31.89
13.79
2.28
-1.91
-0.64
2.64
3.96
-0.49
-13.65
-36.53
-66.93
-98.94
-124.06
-134.21
-124.88
-97.54
-59.26
-19.80
12.04
31.50
38.74
37.31
31.66
25.25
20.15
17.59
18.73
24.54
34.96
48.26
61.30
71.03
75.94
76.89
76.23
75.94
75.99
74.01
66.77
52.38
32.03
9.71
-9.46
-21.84
-26.71
-26.20
-24.02
-24.14
-29.99
-44.07
-67.06
-96.78
-127.76
-152.09
-161.98
-153.13
-126.87
-89.90
-52.11
-22.44
-5.63
-1.26
-5.06
-11.50
-15.98
-15.84
-9.98
1.40
17.27
35.61
53.27
66.69
73.26
72.60
67.26
61.79
60.50
65.33
74.48
83.20
86.09
79.61
63.77
42.02
19.47
0.64
-11.92
-17.93
-18.73
-16.17
-12.20
-9.10
-9.94
-18.06
-35.54
-61.10
-89.10
-110.80
-117.45
-104.35
-73.25
-31.90
9.07
40.33
57.23
60.59
54.92
45.52
36.11
28.39
22.79
19.91
20.78
26.33
36.20
48.03
58.07
62.45
59.09
48.66
34.29
19.95
8.57
0.88
-4.51
-9.92
-17.06
-26.09
-35.70
-43.89
-48.86
-49.49
-45.54
-37.42
-26.18
-13.46
-1.33
7.77
11.24
6.67
-7.50
-30.64
-59.20
-86.62
-105.03
-108.11
-93.86
-65.76
-31.40
0.37
23.04
34.47
36.46
32.66
26.17
18.31
9.13
-1.34
-11.96
-20.33
-23.54
-19.43
-7.34
11.61
34.56
57.78
77.47
90.74
96.26
94.36
86.44
74.10
58.38
39.70
18.52
-3.75
-24.47
-40.12
-47.68
-46.06
-36.71
-23.24
-10.16
-1.10
2.50
2.02
0.97
3.52
12.46
27.59
45.35
59.97
65.36
57.13
34.35
0.10
-39.03
-74.30
-97.13
-101.54
-85.70
-52.48
-8.89
35.38
69.52
84.48
75.61
44.42
-1.34
-49.65
-88.12
-108.28
-108.26
-92.81
-70.37
-49.41
-35.15
-28.60
-27.92
-29.99
-31.73
-30.09
-22.00
-4.87
21.96
55.57
89.43
114.90
124.40
114.88
89.33
55.64
23.34
-0.35
-12.71
-15.26
-11.56
-4.80
3.29
12.31
21.91
30.89
37.30
38.96
34.05
21.21
-0.02
-28.75
-61.95
-94.25
-118.88
-129.82
-124.36
-104.30
-75.84
-47.16
-25.38
-14.29
-14.03
-22.12
-35.13
-49.96
-64.16
-75.87
-83.70
-87.03
-86.21
-82.62
-77.76
-72.03
-64.07
-50.89
-29.02
3.45
45.24
91.39
133.90
163.69
172.97
157.84
120.23
68.67
16.92
-19.48
-28.13
-4.12
47.95
115.10
180.61
229.31
252.13
247.66
220.39
177.18
123.91
64.60
2.82
-56.39
-105.17
-134.30
-136.83
-111.73
-65.29
-9.36
43.23
83.03
106.48
115.35
113.73
104.87
89.58
66.94
36.09
-1.82
-43.35
-83.69
-118.31
-144.32
-160.68
-167.95
-167.19
-159.40
-145.59
-127.66
-109.26
-95.42
-90.60
-95.64
-105.63
-110.53
-99.09
-64.51
-8.60
57.85
119.25
161.50
177.33
167.51
138.31
97.45
51.65
6.27
-33.29
-61.12
-72.29
-65.42
-44.30
-16.88
7.99
24.21
30.89
31.69
32.07
35.96
43.99
53.55
60.51
61.20
53.59
37.63
14.83
-12.24
-40.16
-65.04
-82.71
-89.52
-83.43
-65.57
-40.65
-16.33
-0.74
0.54
-13.19
-37.32
-63.75
-83.52
-89.89
-80.15
-56.14
-23.66
8.86
32.36
39.78
28.76
3.33
-26.93
-50.25
-57.29
-44.83
-16.62
18.76
52.01
76.60
90.52
95.51
95.03
92.24
88.94
85.51
81.46
75.98
68.12
56.96
42.01
23.46
2.44
-19.41
-40.23
-58.42
-72.52
-80.67
-80.61
-70.50
-50.43
-23.95
1.99
19.07
21.06
7.10
-17.36
-42.73
-59.76
-63.28
-53.75
-35.53
-13.81
7.63
26.39
39.89
44.44
36.47
15.62
-13.12
-39.97
-54.36
-49.78
-27.18
5.75
38.73
63.60
77.44
82.33
82.82
82.78
83.62
84.29
82.37
75.78
63.72
46.82
26.70
5.29
-15.84
-35.91
-54.60
-71.50
-85.29
-93.43
-92.66
-80.46
-56.94
-25.94
5.36
28.76
38.10
31.81
13.58
-9.32
-28.96
-39.95
-40.99
-34.29
-24.08
-14.87
-10.57
-14.01
-26.19
-45.32
-66.31
-81.74
-84.44
-70.74
-42.40
-6.21
28.89
55.37
69.81
73.36
70.14
64.96
61.49
61.34
64.17
68.22
70.65
68.54
59.74
43.76
22.44
-0.40
-19.80
-31.09
-31.60
-21.72
-5.11
12.32
24.27
26.37
17.84
1.61
-16.87
-32.13
-40.82
-42.68
-40.00
-36.59
-36.52
-42.98
-57.10
-77.03
-97.68
-111.89
-113.01
-97.80
-68.32
-31.19
5.06
33.22
49.92
55.86
54.41
49.59
44.70
41.80
41.91
44.97
49.85
54.33
55.57
51.27
40.62
24.75
6.33
-11.44
-25.83
-34.95
-37.53
-32.79
-20.61
-2.27
19.00
38.20
49.81
49.80
37.13
14.60
-11.80
-34.90
-48.88
-50.89
-41.54
-23.96
-2.29
19.36
37.07
46.77
44.48
27.87
-1.51
-37.18
-68.88
-86.01
-82.28
-58.60
-22.77
14.08
42.20
56.90
59.22
53.89
46.47
41.06
39.48
41.48
45.22
47.99
46.79
39.10
23.92
2.45
-22.37
-46.58
-66.42
-79.02
-82.74
-77.36
-64.39
-47.06
-29.77
-16.69
-10.13
-9.54
-11.78
-12.70
-8.90
1.22
17.63
39.20
64.30
90.57
114.44
131.22
136.10
125.70
99.15
58.67
9.46
-41.18
-84.76
-113.39
-121.82
-109.33
-80.30
-42.67
-5.33
25.21
46.67
60.56
69.99
77.14
81.93
82.46
76.53
63.28
43.89
21.03
-2.33
-24.04
-43.12
-59.55
-73.47
-84.51
-91.78
-94.16
-91.09
-83.06
-71.76
-59.58
-48.86
-41.08
-36.47
-33.96
-31.81
-28.37
-22.79
-15.39
-7.48
-0.67
3.85
5.89
6.17
5.91
6.15
7.26
8.89
10.32
10.96
10.69
9.90
9.23
9.14
9.76
10.84
11.93
12.66
12.90
12.80
12.69
12.93
13.71
15.01
16.60
18.14
19.31
19.92
19.89
19.26
18.12
16.58
14.76
12.83
10.95
9.29
7.93
6.88
6.03
5.26
4.39
3.31
1.99
0.53
-0.87
-1.93
-2.50
-2.56
-2.35
-2.20
-2.43
-3.13
-4.13
-5.09
-5.67
-5.77
-5.51
-5.17
-5.02
-5.18
-5.55
-5.91
-6.03
-5.73
-5.01
-3.98
-2.87
-1.94
-1.39
-1.23
-1.29
-1.19
-0.55
0.89
3.08
5.68
8.18
10.09
11.20
11.67
12.02
12.98
15.29
19.54
26.02
34.60
44.56
54.62
63.12
68.34
68.97
64.53
55.45
42.95
28.61
14.03
0.51
-11.04
-20.09
-26.50
-30.60
-33.34
-36.53
-42.80
-55.12
-75.84
-105.28
-140.86
-177.02
-206.67
-223.38
-223.69
-208.24
-181.30
-149.04
-116.93
-88.76
-65.91
-47.93
-33.43
-20.87
-8.64
4.95
21.52
42.02
65.85
90.58
112.46
127.62
133.63
130.42
120.26
106.76
93.38
82.25
73.92
67.75
62.70
58.03
53.58
49.56
46.31
44.01
42.51
41.49
40.48
39.07
37.03
34.32
31.12
27.72
24.39
21.32
18.50
15.78
12.91
9.59
5.68
1.26
-3.32
-7.47
-10.51
-11.85
-11.21
-8.75
-5.09
-1.21
1.86
3.30
2.82
0.61
-2.68
-6.31
-9.69
-12.48
-14.69
-16.42
-17.80
-18.86
-19.59
-19.99
-20.13
-20.05
-19.78
-19.23
-18.27
-16.79
-14.85
-12.63
-10.43
-8.49
-6.95
-5.75
-4.72
-3.63
-2.24
-0.43
1.82
4.36
6.98
9.45
11.65
13.61
15.43
17.24
18.98
20.48
21.49
21.84
21.53
20.72
19.66
18.52
17.34
16.04
14.52
12.77
10.88
9.05
7.48
6.28
5.41
4.68
3.84
2.66
0.99
-1.14
-3.60
-6.17
-8.61
-10.74
-12.42
-13.58
-14.19
-14.30
-14.01
-13.48
-12.89
-12.37
-11.98
-11.73
-11.57
-11.46
-11.34
-11.15
-10.79
-10.24
-9.50
-8.69
-7.95
-7.40
-7.06
-6.82
-6.57
-6.21
-5.73
-5.22
-4.72
-4.23
-3.68
-2.96
-2.03
-0.93
0.23
1.30
2.14
2.67
2.87
2.83
2.66
2.50
2.41
2.36
2.27
2.10
1.82
1.53
1.35
1.35
1.56
1.87
2.18
2.35
2.35
2.15
1.80
1.37
0.92
0.50
0.15
-0.16
-0.47
-0.84
-1.29
-1.76
-2.16
-2.40
-2.43
-2.32
-2.15
-2.06
-2.09
-2.23
-2.40
-2.52
-2.54
-2.44
-2.26
-2.00
-1.67
-1.29
-0.93
-0.73
-0.79
-1.14
-1.65
-2.08
-2.18
-1.84
-1.15
-0.36
0.18
0.26
-0.15
-0.92
-1.80
-2.55
-3.04
-3.22
-3.10
-2.72
-2.16
-1.51
-0.93
-0.57
-0.53
-0.79
-1.21
-1.61
-1.84
-1.86
-1.79
-1.80
-2.01
-2.44
-2.94
-3.30
-3.29
-2.82
-1.96
-0.92
0.04
0.70
0.97
0.91
0.66
0.35
0.04
-0.27
-0.60
-0.97
-1.29
-1.49
-1.48
-1.25
-0.87
-0.46
-0.15
-0.02
-0.05
-0.14
-0.16
0.05
0.53
1.22
1.93
2.48
2.73
2.70
2.55
2.51
2.73
3.22
3.85
4.40
4.77
4.98
5.21
5.67
6.48
7.62
8.94
10.27
11.43
12.30
12.76
12.67
11.90
10.43
8.40
6.19
4.22
2.84
2.12
1.84
1.63
1.10
0.06
-1.42
-3.06
-4.51
-5.54
-6.06
-6.18
-6.06
-5.86
-5.66
-5.46
-5.23
-4.96
-4.69
-4.48
-4.36
-4.31
-4.25
-4.08
-3.76
-3.32
-2.86
-2.51
-2.38
-2.48
-2.74
-3.01
-3.14
-3.02
-2.66
-2.17
-1.70
-1.43
-1.49
-1.95
-2.71
-3.63
-4.47
-5.05
-5.27
-5.17
-4.91
-4.70
-4.72
-5.08
-5.78
-6.76
-7.95
-9.21
-10.39
-11.37
-12.08
-12.60
-13.14
-13.93
-15.14
-16.76
-18.59
-20.36
-21.88
-23.22
-24.63
-26.49
-28.98
-32.06
-35.40
-38.55
-41.22
-43.42
-45.54
-48.24
-52.17
-57.69
-64.59
-72.09
-79.04
-84.42
-87.80
-89.57
-90.87
-93.03
-96.84
-101.89
-106.44
-107.77
-103.21
-91.22
-72.27
-48.93
-24.98
-3.76
13.60
28.97
46.60
71.28
106.20
151.38
203.31
255.87
301.53
332.83
343.78
332.25
300.83
257.42
213.89
182.48
171.31
181.07
204.76
230.56
246.75
246.11
227.54
194.60
152.43
105.00
54.38
1.91
-50.17
-97.90
-136.55
-162.31
-173.95
-173.46
-165.54
-156.09
-150.85
-154.53
-170.03
-197.58
-234.00
-272.42
-303.09
-315.63
-302.16
-259.91
-192.44
-108.58
-20.05
61.47
126.41
168.07
182.90
170.75
135.63
86.09
34.60
-5.31
-23.16
-15.28
13.83
53.40
90.55
115.09
122.42
113.52
92.49
63.64
29.85
-7.27
-45.54
-80.78
-106.70
-117.12
-109.07
-85.28
-54.40
-28.79
-20.28
-35.71
-73.93
-125.66
-175.69
-207.55
-208.58
-174.05
-108.87
-26.54
54.76
117.66
151.04
153.23
132.05
101.35
75.52
64.27
69.92
88.19
111.39
132.20
145.76
149.81
143.28
124.94
93.84
51.11
1.75
-45.31
-79.22
-91.63
-80.68
-52.72
-20.60
0.58
-0.95
-29.27
-79.29
-138.02
-188.57
-215.32
-208.64
-168.13
-103.04
-29.82
33.03
71.17
79.39
63.20
36.21
14.08
7.88
20.05
44.64
71.41
91.17
99.32
96.07
84.25
66.35
43.10
14.89
-16.35
-46.06
-67.66
-75.49
-67.91
-48.75
-26.11
-9.41
-5.71
-17.25
-40.80
-68.52
-90.25
-96.81
-83.18
-50.95
-8.52
31.61
57.63
63.58
52.13
33.19
18.98
17.96
30.99
51.54
69.72
77.29
71.21
53.80
30.11
5.27
-17.21
-35.64
-49.10
-56.39
-56.33
-48.79
-35.78
-21.53
-11.17
-8.95
-16.27
-30.52
-45.24
-51.92
-43.23
-16.56
23.55
65.94
96.76
105.41
89.74
57.56
23.19
0.72
-2.35
12.01
34.64
54.58
64.28
61.81
49.54
30.84
8.25
-16.62
-41.54
-62.56
-74.50
-73.05
-57.70
-33.16
-8.61
5.27
0.77
-23.12
-59.21
-93.91
-112.26
-104.14
-68.98
-16.73
35.92
72.20
82.15
66.48
35.62
4.59
-13.67
-13.36
2.82
26.29
47.47
60.13
63.42
60.53
55.50
49.96
42.31
29.15
8.48
-17.73
-43.54
-60.98
-63.62
-49.52
-22.31
9.89
36.59
47.92
37.37
4.10
-45.73
-99.63
-141.53
-156.89
-138.07
-87.98
-19.69
47.74
95.78
112.61
96.43
55.12
2.67
-45.56
-77.20
-85.57
-70.45
-37.16
5.49
47.79
81.63
102.23
108.33
101.60
85.18
62.51
36.64
10.28
-14.03
-33.86
-47.12
-52.13
-47.98
-35.07
-15.44
6.98
26.25
35.23
27.50
0.14
-43.84
-94.72
-137.81
-158.06
-145.72
-100.65
-33.24
38.60
95.53
123.30
117.22
83.06
34.22
-13.25
-45.88
-56.45
-45.01
-17.53
16.98
49.50
73.26
84.58
82.40
67.70
42.82
11.44
-21.55
-50.43
-70.08
-77.71
-74.26
-64.27
-54.16
-49.75
-53.55
-63.70
-74.86
-80.74
-76.87
-62.54
-41.04
-17.98
1.14
13.33
19.02
21.47
24.98
33.23
48.23
70.41
99.07
132.50
167.44
198.65
220.27
228.15
222.42
208.01
192.11
179.36
167.81
148.81
111.45
49.46
-33.30
-122.57
-199.19
-247.22
-260.23
-242.76
-206.40
-163.83
-124.09
-90.93
-64.44
-43.58
-27.85
-17.36
-12.32
-12.28
-16.47
-24.15
-34.56
-46.42
-57.11
-63.08
-60.68
-48.10
-26.85
-1.75
20.21
32.12
29.17
9.84
-23.20
-63.11
-99.79
-121.73
-119.71
-90.84
-40.98
16.14
64.01
90.58
93.70
81.67
68.31
65.07
75.22
93.18
108.99
115.06
110.21
98.99
87.17
77.01
65.53
46.98
18.17
-17.64
-50.96
-69.86
-66.42
-41.32
-4.39
29.00
44.00
31.75
-7.83
-66.65
-131.05
-185.72
-217.00
-215.74
-179.79
-115.55
-37.51
35.16
84.89
102.48
91.17
65.17
42.64
36.71
49.44
72.00
90.72
94.88
82.07
58.04
32.25
12.23
0.36
-5.23
-7.36
-7.17
-4.09
2.05
8.58
10.02
1.16
-18.90
-44.21
-63.57
-65.76
-45.80
-8.81
31.14
57.05
57.13
30.37
-12.89
-55.96
-82.99
-85.21
-63.09
-24.58
19.12
57.49
83.00
91.86
83.66
61.31
30.53
-0.93
-25.14
-36.67
-35.28
-26.82
-21.37
-28.66
-52.91
-89.50
-125.74
-145.50
-135.99
-93.35
-24.51
55.47
128.56
179.38
198.94
186.04
146.72
92.61
38.66
-0.21
-12.93
4.08
45.26
97.50
144.73
173.58
177.50
158.12
122.99
82.21
44.83
16.91
1.11
-3.24
-0.05
4.03
1.48
-13.06
-39.43
-70.53
-94.42
-99.65
-81.32
-44.64
-3.85
23.50
24.11
-5.20
-55.84
-110.91
-151.80
-165.51
-149.47
-111.81
-67.40
-31.54
-13.86
-15.58
-30.56
-49.27
-63.78
-69.90
-66.92
-55.39
-35.73
-8.63
22.81
51.64
68.27
64.91
40.77
4.49
-28.45
-42.98
-32.41
-2.62
30.15
47.51
38.72
6.71
-33.24
-61.75
-65.66
-44.39
-9.61
22.05
37.99
35.50
21.31
6.28
-1.11
1.68
11.88
25.22
39.39
55.18
74.63
97.94
122.06
141.25
149.39
142.81
121.64
88.90
48.57
3.91
-43.02
-90.06
-133.31
-166.54
-183.27
-180.41
-161.35
-136.18
-117.94
-116.31
-132.93
-160.19
-185.12
-195.87
-186.53
-158.26
-116.48
-66.84
-12.97
42.90
97.67
145.88
180.49
195.79
190.22
167.22
133.10
93.57
51.94
9.38
-33.08
-72.48
-103.90
-122.65
-126.84
-118.69
-103.33
-86.06
-69.94
-55.16
-40.34
-24.43
-7.81
8.15
22.39
35.02
46.88
58.30
67.78
72.05
67.43
51.95
27.68
1.40
-17.17
-18.92
0.55
38.93
88.16
138.16
181.25
215.09
242.42
267.16
290.60
309.37
317.13
308.01
280.13
235.98
180.32
117.48
50.10
-19.82
-88.87
-151.76
-202.44
-236.61
-253.46
-256.20
-250.45
-241.53
-232.38
-223.46
-213.80
-202.29
-188.15
-170.65
-148.71
-121.13
-87.87
-50.85
-14.17
17.17
39.30
50.77
52.97
49.11
43.15
38.33
36.83
39.63
46.60
56.47
66.66
73.63
73.58
63.83
44.13
17.01
-12.99
-40.90
-62.59
-75.31
-77.67
-69.54
-52.29
-29.38
-6.27
10.86
17.91
15.58
10.35
12.13
29.26
63.67
108.58
150.44
174.14
169.16
133.83
75.84
8.98
-51.90
-95.69
-117.42
-118.39
-103.87
-80.63
-54.72
-30.40
-10.33
3.88
11.16
11.13
4.87
-4.45
-11.81
-11.86
-1.19
19.83
46.58
71.84
88.45
92.31
84.04
68.66
53.58
45.48
47.62
58.60
73.07
84.08
85.89
76.24
56.93
32.81
9.66
-7.95
-18.09
-21.46
-20.35
-17.13
-13.14
-8.47
-2.48
5.18
14.11
22.94
29.79
32.85
30.53
21.24
3.17
-25.59
-65.88
-115.88
-170.23
-220.58
-257.52
-274.51
-270.57
-250.67
-223.45
-197.54
-178.27
-166.62
-160.19
-155.54
-150.23
-143.35
-134.90
-124.67
-111.84
-94.99
-73.01
-45.76
-14.13
20.27
56.15
92.91
130.35
167.73
202.98
232.55
252.32
259.27
252.79
235.08
210.32
183.05
156.69
133.01
112.42
94.78
79.99
68.04
58.71
51.26
44.55
37.50
29.66
21.38
13.61
7.40
3.31
1.19
0.27
-0.44
-1.72
-3.78
-6.31
-8.72
-10.47
-11.42
-11.92
-12.62
-14.23
-17.23
-21.74
-27.58
-34.30
-41.25
-47.62
-52.49
-55.06
-54.83
-51.90
-46.88
-40.78
-34.55
-28.87
-24.06
-20.24
-17.53
-16.12
-16.16
-17.55
-19.89
-22.53
-24.79
-26.24
-26.76
-26.43
-25.34
-23.47
-20.72
-17.13
-13.03
-9.10
-6.19
-4.79
-4.85
-5.56
-5.74
-4.39
-1.19
3.24
7.57
10.41
10.96
9.46
7.09
5.45
5.80
8.50
12.88
17.49
20.87
22.25
22.14
22.34
25.60
34.49
50.60
73.52
100.72
127.93
150.12
162.53
161.58
145.90
116.88
79.13
40.06
7.82
-11.65
-17.01
-11.89
-2.83
4.31
7.07
6.95
7.35
10.33
14.65
16.29
11.02
-2.70
-22.64
-44.09
-62.36
-74.89
-81.72
-84.38
-84.62
-83.30
-80.49
-75.99
-69.96
-63.31
-57.25
-52.73
-49.93
-48.41
-47.59
-47.47
-48.81
-52.73
-59.86
-69.62
-80.35
-90.07
-97.52
-102.66
-106.31
-109.11
-110.49
-108.64
-101.38
-87.62
-68.29
-46.25
-25.00
-7.27
6.21
16.92
27.74
41.82
61.40
87.16
118.04
151.65
184.72
214.15
237.76
254.54
264.56
268.29
266.17
258.50
246.14
229.64
208.67
181.76
146.78
102.67
51.42
-1.02
-46.10
-75.82
-86.62
-81.39
-68.20
-56.41
-52.22
-56.39
-65.37
-74.64
-82.00
-88.75
-98.12
-112.59
-131.93
-153.13
-171.63
-183.24
-185.26
-177.11
-160.19
-137.34
-112.31
-88.90
-69.88
-56.23
-47.12
-40.73
-35.54
-31.18
-28.39
-28.04
-30.15
-33.46
-36.34
-38.14
-39.84
-43.29
-49.46
-56.80
-61.31
-58.34
-45.08
-22.28
6.25
35.90
63.92
90.45
117.72
147.73
180.17
212.10
239.11
257.37
265.27
263.68
254.73
240.84
223.89
205.23
185.77
165.64
143.53
116.28
79.72
30.63
-30.61
-98.67
-164.11
-216.54
-248.61
-258.91
-251.96
-235.44
-216.32
-198.06
-180.16
-159.93
-135.24
-106.35
-76.18
-49.35
-30.24
-21.58
-23.52
-33.46
-46.53
-57.04
-60.61
-55.66
-43.96
-29.40
-16.03
-6.03
0.76
5.97
10.97
15.51
17.88
16.13
9.77
0.41
-8.75
-14.71
-16.30
-14.83
-13.10
-13.75
-17.65
-23.24
-27.54
-27.76
-22.92
-14.38
-5.07
2.18
6.27
8.54
12.28
21.11
37.24
60.51
88.57
117.81
144.78
167.01
183.12
192.53
194.96
190.52
180.13
165.77
149.59
132.58
113.48
89.40
58.40
22.15
-13.32
-39.67
-50.70
-46.00
-31.91
-18.68
-15.19
-24.44
-42.57
-61.87
-75.79
-82.82
-86.98
-94.79
-111.13
-136.13
-164.52
-187.89
-198.17
-190.86
-167.02
-132.51
-95.80
-64.63
-43.26
-31.29
-24.94
-19.86
-13.68
-7.34
-3.98
-6.62
-15.88
-29.11
-41.60
-48.82
-48.45
-41.04
-29.28
-16.42
-4.88
4.47
12.24
20.00
29.65
43.11
61.87
86.47
116.01
147.96
178.55
203.77
220.56
227.72
225.85
216.87
202.75
184.72
163.07
137.49
107.41
72.44
32.27
-12.61
-60.10
-106.02
-144.56
-169.84
-178.05
-168.85
-146.00
-116.00
-85.44
-58.54
-36.37
-17.76
-1.53
11.53
18.51
16.05
3.14
-16.91
-37.00
-49.24
-48.78
-36.39
-18.47
-3.72
1.19
-5.21
-18.83
-32.80
-41.32
-42.36
-37.86
-31.57
-26.55
-23.98
-23.95
-26.76
-33.80
-46.59
-64.89
-85.20
-101.54
-107.95
-101.50
-83.83
-60.06
-35.89
-14.67
3.69
21.75
42.43
67.47
97.30
131.62
169.87
210.82
251.73
287.83
313.27
323.18
315.10
290.40
253.23
208.61
160.51
111.42
63.37
19.05
-18.31
-46.82
-68.01
-87.68
-113.45
-150.33
-196.94
-244.70
-281.16
-296.08
-286.89
-260.11
-228.30
-203.86
-193.48
-195.97
-204.03
-208.65
-203.29
-186.15
-159.23
-126.53
-91.65
-56.44
-21.33
13.44
46.47
74.86
95.11
104.68
102.92
91.05
70.99
44.37
12.59
-21.94
-54.58
-78.83
-88.65
-81.67
-61.04
-34.58
-11.18
3.58
10.45
16.14
29.82
58.38
102.94
158.22
214.82
263.00
295.54
309.56
306.19
288.80
261.09
225.84
184.52
137.64
86.18
32.09
-20.99
-68.14
-104.49
-126.52
-133.27
-126.56
-110.07
-88.28
-64.95
-41.91
-19.05
4.36
27.66
47.35
57.53
52.20
28.76
-9.39
-52.61
-88.08
-104.87
-98.70
-73.91
-41.49
-14.09
-0.47
-2.18
-13.86
-26.96
-34.37
-33.58
-26.98
-19.56
-15.90
-18.31
-26.86
-40.68
-59.27
-82.52
-109.27
-135.61
-154.90
-159.74
-145.28
-111.93
-65.36
-13.95
35.08
78.24
115.77
149.27
178.88
202.03
214.72
214.30
201.39
180.12
156.08
133.55
113.75
94.75
72.76
43.82
5.60
-41.28
-92.71
-141.71
-180.18
-201.63
-203.15
-187.15
-160.40
-131.13
-105.79
-87.12
-74.34
-65.02
-57.33
-50.84
-46.07
-43.04
-40.61
-37.20
-32.05
-25.93
-20.34
-15.98
-11.95
-6.09
3.44
16.40
30.08
40.49
44.55
41.82
34.45
25.83
18.54
13.25
9.00
4.47
-0.99
-7.12
-13.40
-19.83
-26.90
-35.04
-43.66
-50.77
-53.52
-49.36
-37.43
-18.99
3.11
26.05
48.47
71.11
96.06
124.90
156.95
188.53
213.89
227.30
225.57
209.11
181.91
149.66
117.38
87.89
61.33
35.75
8.29
-23.04
-58.35
-94.99
-127.72
-150.11
-156.78
-145.75
-119.13
-83.07
-45.25
-12.13
13.07
30.39
41.80
49.41
54.35
56.94
57.41
56.52
55.31
54.34
52.84
48.69
39.31
22.75
-0.98
-29.49
-58.58
-83.52
-100.62
-108.45
-108.16
-102.81
-96.03
-90.63
-87.80
-87.08
-87.06
-86.20
-83.43
-78.44
-71.61
-63.73
-55.79
-48.67
-42.59
-36.66
-28.76
-16.11
3.40
29.81
60.31
89.79
112.59
124.73
125.42
117.06
103.89
89.94
77.44
66.47
55.47
42.18
24.39
0.84
-28.06
-59.60
-88.73
-109.26
-115.83
-106.12
-81.82
-48.48
-13.42
17.10
39.71
54.25
62.66
67.09
68.73
67.54
63.08
55.64
46.69
38.37
32.29
28.50
25.09
18.97
7.49
-9.89
-30.96
-51.38
-66.55
-73.70
-73.03
-67.58
-61.57
-58.51
-59.91
-65.05
-71.83
-77.88
-81.57
-82.30
-80.41
-76.84
-72.75
-69.21
-66.71
-64.59
-60.87
-52.72
-37.53
-14.16
16.31
50.77
85.11
115.57
139.67
156.22
165.01
166.22
160.16
147.46
129.07
105.91
78.38
46.43
10.72
-26.21
-59.37
-82.21
-88.95
-77.25
-49.57
-12.34
26.23
59.29
83.50
99.33
109.59
117.20
123.38
127.13
126.03
117.73
101.53
78.94
53.16
27.82
5.38
-13.89
-31.66
-50.10
-70.21
-90.77
-108.70
-120.66
-124.79
-121.93
-115.20
-108.54
-104.90
-105.21
-108.36
-112.14
-114.52
-114.46
-111.96
-107.37
-100.78
-91.69
-79.40
-63.58
-44.82
-24.55
-4.38
14.43
31.38
46.70
61.11
75.78
92.00
110.73
131.80
153.34
171.58
181.97
181.16
168.40
146.25
119.39
92.21
66.77
42.52
18.19
-6.21
-28.56
-46.14
-58.06
-66.70
-76.63
-91.48
-111.21
-131.34
-145.15
-147.57
-138.21
-121.55
-104.03
-90.15
-79.90
-69.24
-53.09
-29.02
0.84
30.44
52.69
62.56
59.35
46.96
31.86
20.05
14.40
13.92
14.93
13.66
8.35
-0.13
-9.60
-18.44
-26.60
-34.94
-43.60
-50.86
-53.75
-49.89
-39.39
-25.07
-10.82
0.81
10.08
19.36
30.81
44.25
56.87
65.03
66.75
63.18
57.75
53.79
52.39
51.67
47.80
36.96
17.20
-10.24
-40.91
-68.20
-85.17
-86.82
-72.06
-44.22
-9.70
24.21
52.06
71.75
84.03
90.71
92.78
89.89
81.30
67.54
51.41
37.69
31.29
34.86
47.21
63.25
75.62
77.64
66.18
42.92
13.52
-14.96
-37.24
-51.90
-61.12
-68.79
-78.17
-90.50
-105.26
-121.04
-136.32
-149.30
-157.45
-157.81
-148.28
-129.31
-104.27
-77.97
-53.80
-31.40
-6.86
24.34
63.40
105.97
143.41
166.77
171.10
157.81
133.39
105.74
80.49
59.06
39.11
16.73
-10.86
-43.39
-76.80
-104.25
-118.40
-114.30
-91.55
-54.79
-12.01
28.11
59.42
79.97
91.49
97.19
99.55
99.29
96.14
90.36
83.73
79.12
78.85
82.84
87.99
89.24
81.67
62.95
34.51
1.09
-30.99
-56.22
-71.76
-77.88
-77.08
-72.49
-66.31
-59.43
-52.05
-44.76
-39.22
-37.88
-42.77
-54.16
-70.08
-86.80
-100.31
-107.79
-108.30
-102.67
-92.62
-79.81
-65.50
-50.49
-35.31
-20.33
-5.87
7.99
21.11
33.07
43.06
49.83
51.71
46.66
32.86
10.04
-19.26
-49.29
-72.28
-81.13
-72.48
-48.46
-15.87
16.17
39.99
51.96
52.80
45.85
34.65
21.35
6.68
-9.05
-24.90
-38.94
-49.03
-54.01
-54.27
-51.51
-47.82
-44.11
-39.10
-29.69
-12.53
13.65
46.31
79.20
104.53
116.04
111.67
94.14
69.34
43.75
22.34
7.72
0.67
0.94
7.36
17.40
27.15
32.26
30.17
21.89
12.30
8.28
15.72
37.04
70.08
109.08
146.72
176.32
193.30
195.72
183.93
160.21
127.84
90.02
49.22
7.26
-33.38
-68.88
-94.66
-107.65
-109.01
-104.75
-103.33
-111.08
-128.52
-149.52
-164.39
-165.32
-150.58
-125.22
-97.92
-76.18
-62.70
-55.03
-47.82
-36.24
-18.25
5.21
31.17
55.96
76.49
90.89
98.47
99.54
94.88
85.34
71.44
53.29
30.75
3.80
-27.21
-61.44
-97.42
-133.01
-165.47
-191.93
-209.84
-217.87
-216.24
-206.47
-190.77
-171.40
-150.41
-129.43
-109.79
-91.84
-73.77
-51.36
-19.47
24.89
79.37
135.63
182.51
211.15
219.43
212.96
201.82
195.09
196.34
202.73
207.38
204.51
192.42
173.63
152.58
132.75
115.15
98.89
83.22
68.93
58.37
53.81
55.42
60.12
62.02
54.96
35.37
4.13
-33.59
-70.30
-99.42
-117.55
-125.17
-125.34
-121.63
-116.48
-110.77
-104.36
-97.02
-89.05
-81.09
-73.73
-67.11
-60.89
-54.56
-47.86
-40.97
-34.37
-28.66
-24.21
-21.00
-18.61
-16.33
-13.49
-9.74
-5.30
-1.00
2.01
2.73
0.88
-2.88
-6.97
-9.57
-9.32
-5.94
-0.34
5.85
10.98
14.05
14.97
14.35
12.98
11.46
9.93
8.31
6.47
4.50
2.71
1.48
1.00
1.10
1.24
0.78
-0.63
-2.84
-5.20
-6.93
-7.55
-7.18
-6.42
-5.99
-6.21
-6.86
-7.30
-6.85
-5.23
-2.66
0.34
3.24
5.79
8.00
9.96
11.64
12.83
13.29
12.95
12.12
11.36
11.27
12.18
13.96
16.11
18.07
19.57
20.75
22.12
24.11
26.85
29.99
32.86
34.74
35.13
33.82
30.81
26.34
20.87
15.11
9.93
6.07
3.81
2.88
2.49
1.73
-0.02
-2.83
-6.35
-10.02
-13.38
-16.25
-18.67
-20.70
-22.33
-23.45
-23.91
-23.65
-22.78
-21.53
-20.17
-18.97
-18.04
-17.43
-17.06
-16.86
-16.78
-16.80
-16.85
-16.81
-16.48
-15.70
-14.38
-12.59
-10.50
-8.34
-6.33
-4.60
-3.24
-2.27
-1.66
-1.34
-1.13
-0.81
-0.21
0.73
1.92
3.12
4.09
4.70
4.95
4.99
5.00
5.05
5.12
5.09
4.85
4.37
3.76
3.18
2.79
2.65
2.68
2.77
2.86
2.95
3.16
3.60
4.29
5.13
5.95
6.60
7.05
7.42
7.85
8.40
8.97
9.31
9.16
8.41
7.19
5.77
4.43
3.35
2.48
1.64
0.62
-0.64
-2.03
-3.32
-4.31
-4.96
-5.43
-5.97
-6.81
-8.01
-9.46
-10.97
-12.37
-13.64
-14.86
-16.09
-17.35
-18.52
-19.44
-19.94
-19.94
-19.43
-18.46
-17.12
-15.53
-13.86
-12.26
-10.78
-9.37
-7.85
-6.03
-3.85
-1.49
0.65
2.03
2.17
0.86
-1.80
-5.35
-9.20
-12.78
-15.75
-17.99
-19.62
-20.83
-21.69
-22.12
-21.78
-20.26
-17.26
-12.85
-7.49
-1.95
2.99
6.87
9.80
12.51
16.10
21.44
28.87
37.95
47.80
57.63
67.39
77.96
90.74
106.80
125.82
145.71
163.08
174.05
175.53
165.77
144.52
113.51
77.12
41.87
15.13
2.86
7.18
24.87
47.71
64.66
65.46
44.26
1.63
-55.47
-116.14
-169.07
-205.72
-222.14
-218.78
-199.06
-167.78
-129.83
-89.94
-52.77
-22.91
-3.94
2.84
-0.68
-9.83
-19.22
-24.82
-25.16
-21.43
-16.18
-11.85
-9.80
-10.05
-11.73
-13.58
-14.42
-13.55
-11.03
-7.66
-4.68
-3.27
-4.03
-6.64
-10.00
-12.67
-13.52
-12.31
-9.76
-7.21
-5.95
-6.48
-8.23
-9.65
-8.80
-4.18
4.50
16.19
28.93
40.57
49.76
56.49
62.11
68.89
79.15
94.42
114.57
137.78
160.65
179.19
190.04
191.24
182.54
165.10
140.79
111.89
80.74
48.98
16.72
-17.95
-58.22
-106.48
-162.04
-219.74
-271.07
-307.36
-323.50
-319.95
-301.84
-275.91
-246.48
-213.98
-176.32
-131.96
-82.50
-33.11
9.42
39.78
56.19
61.14
59.46
56.02
53.76
52.91
52.00
49.36
44.51
38.44
32.99
29.65
28.73
29.31
29.79
28.83
25.92
21.52
16.85
13.34
12.18
14.02
19.00
26.84
37.05
49.15
62.92
78.59
96.71
117.77
141.47
166.41
189.93
208.82
220.29
223.04
217.74
206.65
192.67
178.03
163.67
149.00
132.53
112.32
86.49
53.25
10.78
-42.47
-106.70
-179.46
-254.63
-323.25
-375.98
-406.34
-413.00
-400.16
-375.53
-347.00
-319.88
-295.82
-273.77
-251.90
-229.20
-205.48
-180.71
-154.12
-123.83
-87.48
-43.44
7.74
62.76
115.86
160.69
192.30
208.91
212.33
206.93
197.49
187.37
177.66
167.72
156.61
144.36
132.29
122.58
117.11
116.56
120.11
125.95
132.15
137.52
141.94
145.92
149.89
153.37
154.64
151.41
141.94
125.89
104.66
80.76
56.11
30.99
4.10
-25.63
-57.40
-88.36
-115.12
-135.90
-151.84
-166.14
-181.46
-198.14
-213.48
-223.33
-224.92
-218.68
-208.17
-197.96
-191.09
-187.62
-185.28
-181.20
-173.52
-162.11
-147.60
-130.22
-109.31
-83.34
-50.63
-10.76
34.24
79.91
120.17
149.24
163.62
163.43
152.27
135.74
119.18
106.00
97.00
91.05
86.26
81.31
76.00
71.19
68.18
68.14
71.78
79.29
90.38
104.26
119.52
134.17
145.98
153.21
155.12
152.26
146.06
138.09
129.45
120.25
109.93
97.57
82.06
62.26
37.90
10.20
-17.61
-41.32
-58.15
-69.02
-78.92
-94.58
-120.46
-155.33
-192.05
-220.86
-234.43
-231.73
-217.95
-201.11
-187.35
-178.10
-170.54
-160.35
-144.70
-123.13
-96.79
-66.99
-34.69
-0.94
32.33
61.90
84.08
96.12
97.57
90.55
78.84
66.46
56.28
49.39
45.23
42.43
39.68
36.51
33.52
32.23
34.54
41.86
54.27
69.92
85.45
96.99
101.76
99.22
91.31
81.38
72.66
66.69
63.00
59.69
54.80
46.93
35.50
20.43
2.72
-14.77
-27.30
-29.97
-20.91
-3.96
11.58
14.80
-1.16
-34.79
-76.27
-112.28
-132.86
-136.01
-127.54
-116.44
-109.16
-106.46
-104.35
-97.74
-84.01
-64.11
-41.16
-18.38
2.42
20.67
36.32
48.95
57.73
61.70
60.48
54.52
45.11
34.22
24.13
16.96
14.09
15.65
20.27
25.56
28.95
28.90
25.72
21.68
20.24
24.87
37.51
57.53
81.49
103.92
119.19
123.68
117.25
103.39
87.63
75.21
68.71
67.71
69.31
70.36
69.14
65.63
60.68
54.55
46.41
34.97
19.41
-0.34
-24.41
-53.96
-91.13
-137.24
-190.80
-246.12
-294.44
-327.27
-340.14
-334.47
-316.39
-293.38
-270.61
-249.50
-228.83
-206.72
-182.76
-158.21
-134.76
-112.78
-90.91
-66.02
-35.00
3.88
49.80
98.89
145.22
182.48
206.07
214.65
210.51
198.38
183.48
169.64
158.43
149.66
142.61
137.11
133.82
133.55
136.22
140.26
142.87
141.06
132.99
118.93
101.31
83.95
70.78
64.44
65.47
72.01
80.91
88.78
93.25
93.76
90.90
85.69
78.57
69.56
58.67
46.33
33.02
18.02
-1.38
-29.21
-68.35
-117.59
-170.34
-216.27
-245.62
-253.74
-243.29
-222.70
-201.81
-187.22
-180.10
-177.26
-174.33
-168.70
-160.58
-151.90
-144.35
-138.25
-131.77
-122.03
-106.43
-83.42
-52.92
-15.77
26.47
71.63
116.54
157.03
188.30
206.07
208.15
195.48
172.17
144.38
118.28
98.10
85.10
77.72
72.73
66.90
58.12
45.96
31.53
16.69
3.35
-6.94
-13.13
-14.69
-11.34
-3.13
9.02
23.49
37.78
48.61
52.53
47.20
32.40
10.79
-12.71
-32.56
-44.63
-47.78
-43.85
-36.50
-29.33
-24.50
-22.34
-22.19
-23.44
-26.18
-31.02
-38.48
-48.33
-59.59
-70.77
-80.42
-87.34
-90.62
-89.45
-83.11
-70.86
-51.89
-26.25
4.67
37.81
68.77
92.97
107.24
110.90
105.89
95.72
83.79
72.25
61.65
51.77
42.58
34.98
30.61
31.06
36.99
47.62
60.77
73.49
82.78
86.35
83.23
74.11
61.15
47.45
36.11
29.25
27.53
30.16
35.60
42.30
49.36
56.56
63.87
71.04
77.21
80.90
80.22
72.99
56.77
29.07
-11.94
-66.08
-129.51
-194.56
-251.20
-290.17
-306.47
-301.37
-281.71
-256.92
-235.06
-219.98
-211.01
-204.73
-197.57
-187.88
-176.31
-164.28
-152.61
-140.52
-125.89
-106.35
-80.39
-47.68
-8.66
36.07
85.75
138.51
190.24
234.15
262.20
268.09
250.58
214.97
171.52
131.48
102.54
86.37
79.40
75.75
70.76
62.86
53.42
44.96
39.29
36.79
37.05
39.42
43.77
50.61
60.11
71.72
83.71
93.29
97.06
92.69
80.31
63.24
46.78
35.44
30.05
26.81
19.26
2.09
-25.01
-56.62
-84.18
-100.57
-103.88
-98.01
-90.06
-86.37
-89.51
-98.06
-108.60
-118.19
-125.74
-131.77
-137.15
-142.30
-146.65
-148.88
-147.38
-140.89
-128.73
-110.71
-86.82
-56.94
-20.96
20.57
65.60
110.09
148.57
175.77
188.69
187.97
177.73
163.83
151.26
142.11
134.98
126.27
112.47
92.37
67.76
42.67
21.54
7.34
0.68
0.10
3.17
7.89
13.60
20.73
29.96
41.44
54.16
66.06
74.88
78.46
74.89
62.37
39.25
4.94
-38.79
-86.93
-131.66
-164.55
-179.84
-176.90
-160.49
-138.68
-119.41
-107.54
-103.91
-106.29
-111.62
-117.71
-123.71
-129.46
-134.44
-137.39
-136.39
-129.77
-116.58
-96.83
-71.28
-40.66
-5.53
33.39
74.45
114.58
149.43
174.44
186.47
185.00
172.53
153.50
132.71
113.82
98.58
87.06
78.40
71.56
65.74
60.50
55.66
51.27
47.49
44.37
41.52
37.78
31.56
21.41
6.87
-11.02
-29.69
-45.83
-56.38
-59.38
-54.61
-43.28
-27.63
-10.54
4.59
13.85
13.50
1.31
-21.75
-50.83
-77.93
-94.66
-95.36
-79.68
-52.81
-23.11
1.46
16.29
21.11
18.70
12.59
5.22
-2.41
-9.86
-15.87
-17.75
-12.28
2.61
26.23
54.47
80.82
98.96
105.06
99.14
84.52
66.04
47.93
32.65
20.99
12.93
8.48
7.79
10.72
16.37
23.24
29.97
36.07
42.17
49.20
57.31
65.00
69.37
67.31
57.14
39.70
18.46
-1.56
-15.75
-21.42
-18.50
-8.92
4.69
20.31
36.89
53.95
71.01
86.58
98.02
102.03
95.31
75.06
39.24
-12.86
-79.89
-157.02
-236.20
-307.11
-359.90
-388.33
-391.80
-375.33
-347.10
-315.53
-285.81
-259.51
-235.76
-213.36
-192.19
-173.11
-157.00
-143.43
-130.36
-114.82
-94.26
-67.18
-33.36
6.29
50.28
96.46
141.88
182.73
215.06
235.66
243.49
240.26
229.94
217.45
206.56
198.54
191.95
183.87
171.50
153.71
131.75
108.47
87.20
70.35
58.77
51.92
48.62
47.94
49.60
54.09
61.68
71.97
83.58
94.47
102.62
106.64
105.23
96.86
79.83
53.06
17.55
-22.54
-60.27
-87.95
-99.89
-95.18
-78.09
-56.31
-37.66
-27.22
-26.15
-32.64
-43.72
-56.99
-71.28
-86.05
-100.52
-113.36
-123.00
-128.18
-128.50
-124.13
-115.24
-101.38
-81.21
-53.20
-16.94
25.48
69.10
107.09
133.00
143.17
138.15
122.44
102.60
84.80
72.86
67.42
66.34
65.94
62.37
52.88
36.66
15.14
-8.44
-29.97
-45.90
-54.26
-54.92
-49.00
-37.98
-22.76
-3.79
18.58
43.28
68.15
90.25
106.29
112.95
107.21
86.79
51.12
2.48
-53.34
-107.73
-151.63
-178.77
-188.11
-183.84
-173.24
-163.34
-158.18
-157.99
-160.53
-163.20
-164.60
-164.85
-164.23
-162.12
-156.65
-145.40
-126.56
-99.74
-65.93
-27.04
14.91
58.02
100.19
138.68
170.13
191.18
199.61
195.42
181.02
160.62
138.78
119.09
103.32
91.66
83.28
77.05
71.99
67.21
61.80
54.76
45.19
32.46
16.62
-1.48
-20.37
-38.15
-52.83
-62.57
-66.07
-62.55
-52.24
-36.22
-16.33
4.98
24.82
39.79
46.61
43.24
30.41
12.22
-4.55
-12.78
-8.04
9.63
35.47
62.16
82.89
93.87
94.86
87.99
75.80
59.90
41.10
20.22
-0.78
-18.56
-29.18
-29.74
-19.71
-1.54
19.55
37.49
47.38
47.29
38.84
26.26
14.31
6.18
2.37
1.15
-0.08
-3.12
-8.12
-13.78
-18.26
-20.19
-19.37
-16.75
-14.28
-14.36
-19.22
-30.04
-46.46
-66.26
-85.97
-102.03
-111.93
-115.00
-112.08
-104.67
-93.70
-79.04
-59.86
-35.40
-6.19
25.65
56.62
82.80
100.38
106.04
97.46
74.16
38.51
-3.86
-44.83
-76.02
-91.85
-91.74
-80.23
-64.73
-52.17
-46.39
-47.48
-52.98
-60.19
-67.72
-75.56
-84.02
-92.62
-99.43
-101.75
-97.17
-84.29
-62.88
-33.79
1.58
41.16
81.95
119.92
150.37
169.13
173.98
165.48
147.02
123.71
100.67
81.46
67.26
56.89
47.79
37.11
22.85
4.64
-16.08
-36.50
-53.41
-64.19
-67.63
-64.05
-54.82
-41.62
-25.74
-7.89
11.56
32.29
53.54
74.10
92.60
107.32
115.95
115.64
103.56
78.22
41.21
-2.19
-43.81
-74.93
-89.76
-87.76
-73.76
-55.62
-40.96
-34.31
-36.31
-44.72
-56.46
-69.20
-81.88
-94.14
-105.53
-115.09
-121.58
-123.82
-120.92
-112.42
-98.14
-77.68
-50.37
-15.80
25.22
69.78
112.66
147.34
167.98
171.68
159.75
137.39
111.77
89.24
73.11
62.87
55.13
45.63
31.47
12.35
-9.43
-30.00
-45.54
-53.52
-53.29
-45.85
-33.12
-17.09
0.74
19.46
38.68
57.98
76.84
94.45
109.93
122.19
129.88
131.04
122.95
102.63
68.26
20.98
-34.02
-87.81
-130.44
-154.53
-158.20
-145.66
-125.12
-105.40
-92.60
-88.80
-92.72
-101.59
-112.78
-124.49
-135.49
-144.55
-150.35
-151.62
-147.55
-138.09
-123.71
-105.10
-82.44
-55.05
-21.73
18.45
64.74
113.77
159.47
194.54
212.91
212.20
194.86
167.32
137.49
111.81
93.03
79.95
68.77
55.44
37.76
16.27
-6.14
-25.68
-39.17
-45.11
-43.82
-36.89
-26.11
-12.58
3.42
22.12
43.45
66.51
89.42
109.93
125.75
134.74
134.71
123.45
99.29
62.44
16.15
-33.07
-76.55
-106.58
-119.30
-116.31
-103.74
-89.46
-79.86
-77.82
-82.66
-91.72
-102.29
-112.74
-122.52
-131.27
-138.15
-141.62
-139.93
-131.74
-116.77
-95.85
-70.21
-40.63
-7.07
30.70
71.86
113.32
149.66
174.52
183.04
174.07
150.65
118.76
84.63
52.60
24.23
-0.66
-22.55
-40.97
-54.44
-61.41
-61.17
-54.24
-42.05
-26.22
-8.11
10.98
30.00
47.93
63.99
78.11
90.63
102.07
112.56
121.93
129.55
134.51
135.42
129.98
115.17
88.30
48.97
0.64
-48.89
-89.94
-114.71
-120.53
-110.88
-93.42
-76.38
-65.25
-61.51
-63.61
-69.37
-77.51
-87.89
-100.59
-114.75
-128.51
-139.55
-146.15
-147.70
-144.56
-137.61
-127.28
-113.31
-94.70
-70.12
-38.38
0.78
45.98
93.59
138.02
172.95
193.22
196.77
185.46
164.16
138.59
112.83
88.15
63.42
37.17
9.37
-17.73
-40.35
-55.02
-59.92
-55.55
-44.09
-28.29
-10.55
7.39
24.50
40.29
54.58
67.74
80.29
92.73
105.07
116.78
126.51
132.16
131.09
120.37
97.61
62.19
16.52
-33.50
-79.28
-112.31
-127.31
-124.15
-107.78
-85.83
-65.66
-52.03
-46.37
-47.84
-54.88
-66.11
-80.32
-96.01
-110.94
-122.69
-129.61
-131.35
-128.90
-123.83
-117.31
-109.34
-98.52
-82.38
-58.18
-24.21
18.85
66.70
111.48
143.56
154.67
141.27
106.52
59.40
11.51
-27.15
-51.44
-61.63
-61.34
-54.61
-43.81
-29.35
-11.04
10.14
31.55
49.36
60.24
62.90
58.71
51.27
44.87
42.96
46.85
55.62
66.71
76.88
83.04
82.94
75.33
60.84
42.60
26.01
17.28
20.82
36.79
60.53
84.08
99.55
102.67
94.35
79.54
64.16
51.90
42.74
34.06
22.73
7.47
-10.40
-27.81
-41.81
-50.65
-53.92
-52.29
-46.89
-39.60
-33.74
-34.23
-46.37
-73.06
-112.01
-154.94
-189.69
-204.78
-194.23
-160.00
-110.62
-57.23
-8.97
29.42
57.11
74.74
82.01
76.92
57.21
22.58
-23.53
-73.87
-119.64
-153.26
-170.63
-171.68
-159.34
-137.54
-109.63
-77.74
-43.27
-8.11
24.52
50.39
66.02
70.78
68.32
65.68
70.42
87.08
114.55
146.17
172.72
186.45
184.01
167.14
140.87
110.75
80.69
52.39
26.35
3.23
-15.39
-27.38
-30.89
-25.14
-10.92
9.45
32.49
54.19
70.81
79.48
78.86
69.53
53.78
34.82
15.83
-0.96
-14.58
-25.08
-32.88
-38.27
-41.26
-41.75
-39.95
-36.48
-32.35
-28.68
-26.42
-25.96
-27.00
-28.60
-29.29
-27.68
-22.93
-15.34
-6.43
1.58
6.57
7.46
4.58
-0.40
-5.31
-8.38
-9.03
-8.14
-7.70
-10.14
-17.61
-31.25
-50.81
-74.68
-100.00
-123.37
-141.66
-152.70
-155.92
-152.61
-145.74
-138.79
-134.22
-131.45
-126.45
-113.15
-86.56
-45.96
3.69
53.18
92.56
114.99
118.99
108.14
88.85
67.60
49.31
36.72
30.83
31.53
37.99
48.99
63.07
78.71
94.15
106.89
113.70
111.32
97.83
74.08
44.04
13.60
-11.72
-29.06
-39.05
-44.93
-50.49
-57.90
-66.71
-74.09
-76.16
-69.53
-52.63
-26.33
6.13
39.78
69.18
89.55
97.90
93.47
77.64
53.38
24.59
-4.48
-29.84
-48.26
-57.89
-58.64
-52.29
-41.79
-30.33
-20.28
-12.60
-6.88
-2.00
3.09
8.73
14.23
18.16
18.87
15.15
6.83
-4.92
-17.76
-28.75
-35.12
-35.16
-28.54
-16.32
-0.56
16.27
31.70
43.81
51.65
55.90
58.92
64.25
75.02
92.30
114.09
135.84
152.31
159.79
157.58
147.82
134.11
119.72
106.47
94.76
84.12
73.99
63.86
53.14
41.10
27.07
10.91
-6.77
-24.65
-41.16
-54.92
-65.02
-71.04
-73.13
-71.86
-68.11
-62.90
-57.11
-51.50
-46.57
-42.68
-40.06
-38.82
-38.85
-39.84
-41.31
-42.86
-44.31
-45.68
-47.05
-48.33
-49.12
-48.81
-46.87
-43.18
-38.16
-32.69
-27.78
-24.18
-22.06
-20.89
-19.87
-18.30
-15.87
-12.85
-9.78
-7.00
-4.53
-2.12
0.30
2.34
3.35
2.99
1.82
1.28
3.08
8.19
16.31
25.89
34.88
41.62
45.31
45.91
43.66
38.92
32.14
24.27
16.67
11.01
8.48
9.38
13.09
18.42
23.70
26.96
26.42
20.95
10.81
-2.27
-15.97
-28.60
-40.00
-51.61
-65.05
-80.76
-97.06
-110.56
-117.74
-116.90
-109.06
-97.80
-88.35
-85.33
-91.01
-104.15
-120.02
-131.63
-132.22
-117.92
-89.38
-51.91
-13.27
19.48
42.43
55.30
60.26
59.90
55.96
49.44
41.69
35.56
35.05
43.56
61.85
86.92
112.61
131.79
139.33
133.89
118.50
98.87
80.87
68.33
62.13
60.84
62.00
63.37
63.35
60.90
55.23
45.88
32.79
16.60
-1.47
-19.90
-37.28
-52.40
-64.18
-71.52
-73.26
-68.85
-58.98
-45.64
-32.07
-22.01
-19.04
-25.71
-42.65
-67.80
-96.21
-120.96
-135.27
-134.74
-119.38
-93.65
-64.55
-38.71
-20.24
-10.17
-7.26
-9.71
-16.15
-25.49
-36.17
-45.59
-50.13
-46.17
-31.39
-5.68
28.45
65.99
100.85
127.54
142.65
146.03
140.58
131.03
122.00
116.22
113.73
112.32
108.85
100.66
86.88
68.46
47.82
27.87
11.20
-0.48
-6.36
-6.51
-1.86
6.04
14.86
21.36
21.34
10.51
-13.81
-50.86
-95.57
-139.48
-173.17
-189.95
-188.43
-172.92
-151.30
-131.45
-118.25
-112.47
-111.87
-113.19
-114.08
-113.42
-110.59
-104.43
-92.74
-72.90
-43.33
-4.76
39.09
81.97
117.13
139.56
147.62
143.42
131.66
117.75
106.01
98.80
96.59
98.50
102.81
107.06
108.25
103.44
90.81
70.66
45.75
20.41
-0.80
-14.52
-19.45
-16.47
-8.04
2.25
10.08
11.05
1.99
-17.20
-42.48
-66.31
-80.16
-78.02
-59.05
-28.16
6.02
34.75
52.46
58.10
54.23
44.75
33.15
21.82
12.56
7.43
8.50
16.90
31.60
49.09
64.33
72.62
71.61
62.04
47.29
31.61
18.25
8.60
2.32
-1.48
-3.17
-2.34
1.53
7.85
14.27
17.11
12.95
0.33
-19.22
-41.32
-60.71
-72.93
-75.97
-70.48
-59.13
-45.43
-33.00
-25.43
-26.04
-37.22
-58.90
-87.50
-116.14
-136.78
-142.98
-132.80
-109.71
-80.89
-54.16
-34.91
-24.70
-21.94
-23.59
-26.81
-29.37
-29.20
-23.74
-10.50
11.74
41.49
74.14
103.30
122.87
129.51
123.73
109.54
92.37
76.86
65.55
58.80
55.69
55.05
55.82
56.74
56.06
51.48
40.87
23.48
0.59
-24.54
-47.58
-64.57
-73.03
-72.43
-63.90
-49.81
-33.00
-16.59
-3.96
1.48
-2.84
-17.34
-39.28
-62.81
-80.51
-86.10
-76.81
-54.77
-26.08
1.74
22.68
34.06
36.42
32.05
23.42
12.20
-0.47
-12.92
-22.34
-25.05
-17.85
0.25
26.88
56.51
82.09
97.39
99.66
90.38
74.45
57.94
45.49
38.91
37.20
37.79
38.19
36.91
33.63
28.59
21.99
13.62
3.10
-9.63
-23.86
-37.97
-49.69
-56.64
-57.15
-50.69
-38.46
-23.16
-8.37
2.34
6.02
0.42
-15.60
-41.48
-74.08
-107.57
-134.29
-147.03
-141.70
-118.72
-83.44
-44.01
-8.29
18.66
35.37
42.82
42.79
36.52
24.90
9.13
-8.33
-23.81
-33.37
-33.82
-23.81
-4.20
21.70
49.07
72.64
88.28
94.23
91.42
82.92
72.41
62.65
54.58
47.74
41.38
35.38
30.52
27.42
25.42
22.23
14.72
0.66
-19.63
-42.80
-63.75
-77.32
-80.54
-73.56
-59.17
-41.54
-25.11
-13.92
-11.04
-17.85
-33.07
-52.35
-68.87
-75.55
-67.78
-45.40
-13.10
21.42
50.50
69.30
76.66
74.32
65.14
51.69
35.96
20.13
7.22
0.85
4.04
17.33
37.88
60.04
76.97
83.53
78.30
63.85
45.41
28.53
16.81
10.97
9.31
9.09
8.07
5.21
0.71
-4.29
-8.22
-9.69
-8.18
-4.64
-1.65
-2.41
-9.46
-23.20
-41.30
-59.61
-73.63
-80.27
-78.93
-71.26
-60.13
-48.87
-40.83
-39.08
-45.70
-60.55
-80.17
-98.01
-106.41
-99.57
-76.11
-40.11
0.42
36.83
62.90
76.41
78.69
72.87
62.28
49.76
38.07
30.25
29.13
36.12
50.03
66.93
81.51
88.90
86.72
75.86
59.90
43.28
29.58
20.39
15.39
13.14
12.06
11.06
9.71
8.10
6.76
6.42
7.65
10.27
12.96
13.40
9.04
-1.77
-18.70
-39.12
-58.78
-73.27
-79.53
-76.58
-65.60
-49.06
-30.08
-12.16
0.89
5.30
-1.60
-19.74
-45.25
-71.02
-88.79
-92.44
-80.71
-57.69
-30.91
-8.09
5.89
10.17
6.88
-0.73
-10.02
-19.38
-27.48
-32.27
-30.77
-20.09
0.78
29.64
61.10
88.03
104.20
106.74
97.08
80.17
62.18
47.99
39.65
36.40
35.87
35.74
34.72
32.57
29.36
24.83
18.10
8.17
-5.40
-21.92
-39.45
-55.08
-65.74
-69.13
-64.29
-51.85
-33.83
-13.12
7.01
23.12
31.85
30.46
17.81
-4.53
-31.79
-56.90
-72.69
-74.58
-62.53
-41.12
-17.47
1.86
13.23
16.44
13.53
6.91
-2.03
-12.83
-25.09
-37.42
-47.14
-50.87
-45.69
-30.25
-5.52
24.91
55.60
80.70
95.74
99.14
92.57
80.12
66.48
55.20
47.75
43.66
41.59
40.35
39.34
38.41
37.26
35.18
31.08
23.99
13.48
0.10
-14.68
-28.67
-39.41
-44.72
-43.23
-34.75
-20.40
-2.65
15.36
30.25
38.75
37.87
25.38
0.76
-33.68
-72.42
-107.73
-131.72
-139.44
-130.85
-110.75
-86.60
-65.24
-50.50
-42.79
-40.38
-41.35
-44.95
-51.19
-59.69
-68.65
-74.61
-73.43
-61.74
-38.27
-4.60
34.76
73.39
104.83
124.42
130.74
125.98
114.94
102.97
93.96
89.08
86.87
84.49
79.23
69.86
56.83
41.82
26.78
13.04
0.99
-9.57
-18.82
-26.23
-30.17
-28.69
-20.19
-4.60
16.13
38.36
57.59
69.47
70.48
58.56
33.80
-0.78
-39.30
-74.12
-97.95
-106.56
-100.53
-84.95
-67.09
-53.20
-46.15
-45.32
-48.13
-52.35
-57.41
-64.17
-73.46
-84.62
-95.09
-101.12
-99.17
-87.10
-64.52
-33.20
3.51
41.14
74.88
100.59
115.87
120.62
117.03
108.65
98.99
90.38
83.44
77.33
70.47
61.53
49.86
35.60
19.44
2.18
-15.43
-32.63
-48.47
-61.53
-69.82
-71.33
-64.61
-49.61
-28.20
-3.85
19.08
36.28
44.28
41.11
27.01
4.98
-19.35
-39.00
-47.90
-43.13
-26.31
-2.91
20.05
37.02
45.81
47.49
44.56
38.90
30.70
18.98
3.28
-15.01
-32.50
-44.75
-47.93
-40.14
-22.06
2.96
29.69
52.35
66.12
68.62
60.61
45.79
29.42
16.34
9.15
7.51
8.63
8.77
5.04
-3.42
-15.38
-28.31
-39.70
-48.20
-53.85
-57.54
-60.03
-61.04
-59.05
-52.31
-39.63
-21.37
0.18
21.60
39.26
50.04
51.64
42.80
23.90
-2.29
-30.39
-53.30
-64.42
-60.15
-41.70
-14.82
12.60
33.88
45.93
49.51
47.53
42.77
36.20
27.11
14.55
-1.25
-18.29
-33.43
-43.67
-47.23
-43.58
-33.47
-18.29
0.32
20.32
39.33
54.81
64.83
68.70
67.27
62.43
56.15
49.48
42.04
32.64
20.24
4.99
-11.56
-27.10
-39.69
-48.45
-53.67
-56.11
-56.06
-52.82
-44.98
-31.24
-11.60
11.82
35.19
53.80
63.24
60.30
43.65
14.61
-22.46
-60.62
-91.80
-109.08
-109.38
-94.76
-71.58
-47.75
-29.46
-19.17
-15.87
-16.95
-20.49
-26.27
-35.25
-47.70
-61.96
-74.37
-80.51
-77.03
-62.66
-38.54
-7.72
25.75
57.88
85.09
104.77
115.57
117.77
113.15
104.43
94.20
83.96
73.73
62.43
49.01
33.44
17.02
1.76
-10.68
-19.86
-26.40
-31.12
-33.97
-33.83
-28.79
-17.50
-0.28
20.39
40.33
54.74
59.36
51.67
31.97
3.99
-25.50
-48.54
-58.60
-53.12
-34.67
-9.95
13.15
28.76
35.08
33.96
28.85
22.37
15.13
6.09
-5.76
-19.96
-34.15
-44.81
-48.62
-43.51
-29.39
-8.32
15.78
38.03
53.83
60.21
56.79
45.74
30.82
15.83
3.24
-6.21
-13.01
-18.04
-21.96
-25.11
-27.96
-31.31
-36.16
-43.26
-52.52
-62.80
-72.08
-78.06
-78.62
-72.59
-59.81
-41.33
-19.48
2.54
21.25
33.41
36.51
29.36
12.74
-9.75
-31.91
-46.36
-46.94
-31.36
-2.37
32.99
66.21
90.66
103.81
107.01
103.53
96.25
86.27
73.14
56.41
36.97
17.34
0.95
-9.13
-11.19
-5.23
6.66
20.92
33.30
40.13
39.28
30.86
17.13
1.50
-12.87
-24.10
-31.84
-36.65
-39.20
-39.83
-38.76
-36.70
-35.19
-36.27
-41.60
-51.32
-63.63
-75.12
-81.85
-80.70
-70.34
-51.58
-27.13
-0.80
23.22
40.94
49.01
45.31
29.91
5.81
-21.00
-42.95
-53.42
-49.23
-32.24
-8.57
14.13
29.83
36.23
34.64
28.17
19.50
9.71
-1.48
-14.32
-27.75
-39.00
-44.33
-40.42
-25.77
-1.59
28.06
57.18
79.55
90.63
89.03
76.84
58.57
39.39
23.33
12.29
6.07
3.19
1.74
0.02
-3.18
-8.58
-16.25
-25.63
-35.55
-44.65
-51.72
-56.01
-57.04
-54.44
-47.80
-36.81
-21.79
-3.90
14.80
31.76
44.31
50.06
47.29
35.48
16.19
-6.45
-26.34
-37.15
-34.82
-19.47
4.28
29.27
48.82
59.31
60.98
56.70
49.69
41.74
32.86
22.09
9.06
-5.14
-18.21
-27.58
-31.34
-28.66
-19.82
-6.04
10.66
27.53
41.43
49.52
50.10
43.27
31.09
16.89
4.14
-4.76
-9.21
-10.40
-10.68
-12.45
-17.18
-24.81
-33.69
-41.27
-45.05
-43.55
-36.79
-26.08
-13.14
0.61
14.44
28.31
42.30
56.15
68.95
79.25
85.39
85.57
77.90
60.53
32.22
-6.35
-51.56
-96.65
-133.21
-154.07
-156.21
-142.09
-118.66
-94.33
-75.60
-65.12
-61.81
-62.84
-65.78
-69.79
-75.15
-82.05
-89.41
-94.75
-95.12
-88.28
-73.45
-50.99
-21.96
12.33
49.87
87.36
120.17
143.21
152.63
147.28
129.22
102.91
73.56
45.58
21.93
4.44
-5.69
-7.87
-2.64
7.81
19.89
29.74
34.85
35.13
32.61
30.52
31.59
36.91
45.69
55.42
62.48
63.18
54.68
36.62
12.16
-12.14
-28.24
-29.80
-15.16
11.40
41.15
64.61
75.53
73.11
61.42
46.61
33.67
24.44
17.65
10.77
1.86
-9.21
-21.06
-31.97
-40.73
-46.84
-50.15
-50.24
-46.75
-40.34
-33.63
-31.16
-37.83
-56.23
-84.52
-116.33
-143.10
-157.70
-157.19
-143.09
-119.68
-91.36
-61.02
-30.11
0.18
27.89
50.14
64.30
69.45
67.18
61.16
55.81
54.57
58.55
66.38
75.07
81.11
81.47
74.18
58.65
36.24
10.64
-12.41
-26.61
-27.56
-14.81
7.29
31.02
48.54
55.12
50.69
38.99
25.06
12.41
1.78
-8.26
-19.57
-32.70
-46.33
-58.00
-65.56
-68.42
-67.92
-67.06
-68.99
-75.68
-87.09
-101.04
-114.09
-122.80
-124.72
-118.50
-103.47
-79.32
-46.56
-7.66
31.99
64.47
81.81
79.54
59.58
30.19
2.84
-12.65
-11.99
2.77
25.43
49.63
71.67
91.10
108.67
124.10
134.95
137.51
129.39
111.44
88.34
66.77
52.32
47.20
49.93
57.30
67.16
80.15
99.30
127.32
163.31
200.89
229.80
239.85
225.51
188.37
136.25
79.57
27.16
-16.67
-52.16
-81.93
-108.39
-132.26
-152.77
-168.62
-179.07
-183.98
-183.54
-178.18
-168.79
-157.41
-147.14
-141.08
-140.89
-145.73
-152.47
-157.46
-158.55
-156.00
-151.59
-146.69
-140.32
-129.18
-109.59
-80.07
-43.04
-4.15
29.90
54.23
67.71
72.80
73.66
73.79
74.58
75.28
74.29
70.57
64.34
56.91
49.93
44.53
41.03
38.93
37.33
35.42
32.76
29.44
26.04
23.23
21.51
20.79
20.47
19.72
17.93
15.01
11.42
7.93
5.16
3.31
2.14
1.16
0.02
-1.31
-2.58
-3.47
-3.75
-3.40
-2.60
-1.50
-0.19
1.31
3.02
4.87
6.66
8.18
9.33
10.12
10.73
11.37
12.17
13.19
14.29
15.19
15.49
14.70
12.42
8.52
3.33
-2.19
-6.54
-8.16
-6.02
-0.22
7.80
15.69
21.04
22.22
18.99
12.43
4.30
-3.78
-10.78
-16.43
-20.78
-23.83
-25.31
-24.82
-22.23
-18.01
-13.29
-9.55
-8.08
-9.42
-13.14
-18.01
-22.49
-25.35
-26.15
-25.28
-23.71
-22.65
-23.25
-26.36
-32.44
-41.00
-50.17
-56.53
-55.97
-45.36
-24.39
3.60
32.45
55.59
68.73
71.49
67.12
60.56
56.01
55.29
57.83
61.85
65.76
68.90
71.30
72.94
73.18
70.88
64.94
55.15
42.52
29.07
17.05
8.09
2.61
-0.14
-1.58
-3.10
-5.41
-8.51
-11.88
-14.93
-17.31
-19.10
-20.65
-22.37
-24.51
-26.94
-29.27
-30.99
-31.67
-31.20
-29.80
-27.95
-26.20
-24.95
-24.28
-23.93
-23.44
-22.38
-20.58
-18.19
-15.69
-13.59
-12.21
-11.56
-11.34
-11.21
-10.90
-10.33
-9.62
-8.96
-8.44
-8.12
-7.93
-7.68
-6.85
-4.53
0.37
8.48
19.36
31.09
40.73
45.46
43.90
36.85
27.00
17.75
11.61
9.32
9.84
11.33
12.33
12.55
12.73
13.95
16.80
20.99
25.49
29.03
30.75
30.65
29.55
28.67
28.93
30.60
33.09
35.19
35.54
32.82
25.60
12.05
-9.88
-41.30
-80.81
-123.37
-160.41
-182.79
-184.47
-165.26
-131.23
-92.35
-58.39
-35.64
-25.27
-24.38
-28.41
-33.12
-35.22
-32.16
-21.60
-2.15
25.13
55.68
82.08
96.62
94.55
76.55
48.78
20.18
-1.50
-12.58
-13.87
-8.73
-0.43
9.40
20.68
33.36
46.23
56.73
61.94
59.66
49.17
31.14
7.80
-17.34
-39.64
-54.30
-57.85
-49.32
-31.24
-8.75
12.41
28.02
36.41
37.91
33.70
24.54
10.92
-6.29
-24.89
-41.17
-50.64
-49.49
-36.04
-11.74
18.64
47.71
67.66
72.79
61.91
38.76
10.91
-13.51
-29.07
-34.70
-32.73
-26.56
-18.45
-8.57
3.67
18.06
32.47
43.23
46.43
39.60
22.67
-1.73
-28.37
-50.83
-63.20
-62.13
-47.98
-25.19
-0.48
19.93
32.54
37.22
35.92
30.90
23.05
12.09
-2.25
-18.76
-34.15
-43.63
-42.60
-28.65
-2.93
29.32
59.72
79.44
82.37
67.85
41.16
11.65
-11.31
-22.31
-21.60
-13.70
-4.00
4.43
11.82
20.33
31.56
44.49
55.49
60.16
55.30
40.10
16.01
-13.87
-45.69
-75.28
-98.51
-111.63
-112.71
-102.39
-83.75
-61.35
-39.67
-21.91
-9.69
-3.44
-3.24
-9.03
-20.17
-34.72
-49.05
-58.27
-57.51
-43.75
-17.44
16.79
50.70
74.94
82.69
72.69
50.02
24.26
5.20
-1.40
4.13
16.66
29.89
39.94
46.82
53.10
61.31
71.48
80.63
84.48
79.46
64.28
39.94
9.19
-24.62
-57.66
-85.81
-105.12
-112.40
-106.91
-90.95
-69.12
-46.79
-28.36
-16.27
-11.30
-13.15
-21.37
-35.22
-53.00
-71.45
-86.06
-92.09
-85.81
-65.82
-33.79
5.39
44.17
74.38
90.01
89.36
75.86
56.67
39.48
29.28
26.92
29.96
35.20
40.72
46.69
54.09
63.09
72.08
77.94
77.26
67.76
49.09
23.27
-5.28
-30.70
-47.20
-51.07
-42.13
-24.27
-3.95
12.37
20.59
19.92
12.18
-0.09
-15.02
-31.79
-49.83
-67.46
-81.20
-86.29
-78.55
-56.81
-24.64
9.93
36.58
46.99
38.60
15.97
-10.86
-30.91
-37.16
-29.24
-12.41
5.92
20.32
29.54
35.95
42.80
51.64
61.28
68.68
70.94
66.70
56.37
41.21
22.17
-0.13
-24.52
-48.39
-67.63
-77.81
-76.04
-63.07
-43.28
-23.09
-8.46
-2.95
-6.76
-17.77
-32.68
-48.21
-61.53
-70.13
-71.32
-62.42
-41.55
-9.00
31.56
73.09
106.66
124.30
122.45
103.63
75.48
47.52
27.46
18.59
19.57
26.53
35.43
43.70
50.11
53.69
52.54
43.94
25.64
-2.20
-35.70
-67.92
-90.69
-97.92
-88.62
-67.45
-42.64
-22.31
-11.18
-9.31
-13.39
-19.53
-25.61
-32.10
-40.71
-52.37
-65.80
-77.43
-82.65
-77.28
-59.13
-29.12
7.94
44.30
71.29
82.56
76.63
57.98
35.34
17.74
10.62
13.96
23.46
33.63
41.12
45.99
50.58
56.97
65.12
72.44
75.46
71.69
60.74
43.90
22.94
-1.16
-28.13
-57.13
-85.43
-108.15
-119.41
-115.43
-96.67
-68.19
-37.92
-13.76
-0.76
-0.11
-9.71
-25.66
-43.83
-60.22
-70.99
-72.30
-61.20
-37.22
-3.85
31.53
59.67
72.83
68.35
50.09
26.86
8.24
0.27
3.39
13.37
24.62
33.52
39.82
45.63
52.92
61.69
69.74
73.99
72.06
63.22
48.13
28.52
6.91
-13.58
-29.49
-37.83
-36.95
-27.65
-13.21
1.88
13.59
19.50
19.02
12.84
1.75
-13.36
-31.32
-50.02
-66.15
-75.59
-74.69
-61.65
-37.90
-8.44
19.14
37.01
40.21
28.99
8.99
-10.86
-22.35
-21.59
-10.20
6.55
23.15
36.75
47.90
58.99
71.41
83.85
92.59
93.20
82.65
60.43
28.54
-8.74
-45.97
-77.39
-97.87
-104.74
-98.78
-83.94
-65.79
-49.36
-37.42
-30.26
-26.91
-26.61
-29.91
-38.03
-51.39
-68.25
-84.56
-95.07
-95.35
-83.09
-58.99
-26.86
7.02
35.60
53.22
57.65
51.03
39.11
28.84
25.25
29.38
38.72
49.35
58.54
66.05
73.54
82.38
91.90
98.91
99.11
88.88
66.92
34.94
-2.49
-38.89
-67.25
-81.89
-80.40
-64.64
-40.12
-14.54
5.33
16.01
17.73
13.00
4.27
-7.54
-22.90
-42.32
-64.76
-86.89
-104.12
-112.22
-108.58
-92.58
-65.71
-31.55
4.59
36.39
58.18
66.81
62.98
51.15
37.64
27.99
25.00
28.28
35.74
45.27
55.78
67.00
78.15
86.82
88.90
80.48
60.12
30.88
0.28
-22.22
-29.15
-18.69
4.20
29.49
46.58
48.87
36.30
14.41
-9.03
-28.06
-41.03
-50.24
-59.57
-71.77
-86.88
-102.37
-114.70
-120.88
-119.30
-109.60
-92.03
-67.42
-37.84
-7.10
19.56
37.07
42.67
37.36
25.68
13.59
5.85
4.34
8.33
16.01
25.88
37.51
50.63
64.01
75.26
81.44
80.26
70.95
54.74
34.52
14.61
-0.15
-5.68
-0.25
14.52
33.84
51.46
62.09
63.38
56.21
43.24
27.08
8.92
-11.34
-33.64
-56.41
-76.10
-87.96
-87.82
-73.80
-47.67
-14.98
15.90
36.56
41.73
31.49
11.67
-8.53
-20.68
-20.83
-10.66
4.38
18.67
29.57
38.04
47.06
58.61
71.71
82.55
86.12
78.54
58.48
27.49
-10.26
-48.97
-82.27
-104.36
-112.08
-105.99
-90.30
-71.16
-54.21
-42.51
-36.03
-32.87
-31.31
-31.46
-35.07
-43.93
-58.05
-74.78
-89.60
-97.99
-97.05
-85.77
-64.90
-36.61
-4.21
27.85
54.44
71.17
76.01
70.46
59.18
47.91
41.12
40.60
45.72
54.60
65.67
78.05
91.00
102.94
111.07
111.91
102.45
81.64
51.48
16.99
-14.71
-36.69
-44.70
-38.75
-23.43
-6.04
6.64
10.83
6.62
-3.28
-15.63
-28.71
-42.64
-58.19
-75.43
-92.65
-106.47
-112.92
-109.11
-94.68
-72.61
-49.03
-31.41
-25.68
-33.34
-50.29
-68.24
-78.20
-74.44
-56.61
-29.12
1.60
30.20
54.30
73.98
90.14
103.01
111.82
115.60
114.08
108.38
100.78
93.98
89.79
88.09
86.58
81.04
66.94
41.97
7.83
-29.22
-60.44
-78.03
-78.59
-64.61
-42.83
-20.96
-4.88
2.37
-0.14
-12.78
-35.69
-67.62
-104.46
-138.97
-162.28
-167.65
-153.40
-123.34
-84.86
-45.62
-11.15
15.94
35.42
48.09
54.98
57.32
56.81
55.18
53.86
53.38
52.85
50.52
44.98
36.31
26.76
19.91
18.79
24.45
35.54
49.00
61.49
70.65
75.70
77.03
75.59
72.55
69.57
68.66
71.37
77.45
83.63
84.41
74.41
51.42
18.32
-17.71
-48.27
-67.35
-73.37
-69.46
-60.59
-50.41
-39.86
-27.70
-12.54
5.09
22.33
35.18
40.14
35.34
20.70
-2.29
-30.70
-60.24
-85.49
-100.65
-102.03
-89.95
-68.79
-45.42
-26.43
-15.47
-12.27
-13.79
-16.59
-18.95
-21.40
-25.50
-32.21
-40.72
-48.75
-53.80
-54.64
-51.93
-47.92
-45.62
-46.85
-51.79
-58.75
-64.86
-67.17
-63.20
-51.26
-30.29
-0.03
38.35
81.12
121.71
151.73
164.19
156.74
133.18
102.22
73.72
54.73
47.16
48.24
52.96
56.91
57.34
52.52
41.09
22.26
-2.78
-29.77
-51.94
-62.62
-58.22
-40.80
-17.64
2.09
11.23
7.52
-6.26
-24.38
-41.21
-53.44
-60.77
-65.09
-68.55
-72.70
-77.87
-83.23
-87.30
-88.27
-83.94
-72.04
-50.81
-20.15
17.09
54.94
85.63
102.25
102.00
87.76
66.84
47.59
35.88
33.01
36.45
42.44
48.51
54.23
60.44
67.47
73.97
77.40
75.30
66.33
50.55
28.83
2.72
-25.72
-53.55
-76.89
-91.46
-94.53
-86.30
-70.12
-51.36
-35.44
-26.21
-24.95
-30.81
-41.74
-55.35
-69.17
-80.42
-85.93
-82.30
-67.19
-40.90
-7.42
26.17
51.60
62.72
58.20
42.46
23.85
10.62
7.37
13.59
25.06
37.02
46.78
54.64
62.53
71.63
80.93
87.15
86.29
75.19
53.18
22.88
-9.90
-37.63
-53.55
-54.24
-41.50
-21.94
-4.23
4.76
2.81
-7.32
-20.07
-30.58
-37.33
-42.37
-49.16
-60.15
-74.71
-89.32
-99.26
-100.69
-91.68
-72.35
-44.57
-11.52
22.36
51.82
71.97
79.76
75.67
63.92
50.64
41.18
37.91
39.76
43.93
48.21
52.34
57.67
65.54
75.31
84.04
87.78
83.11
68.79
45.75
16.33
-16.07
-47.51
-73.76
-90.86
-95.91
-88.90
-72.97
-53.45
-35.83
-23.78
-18.39
-18.81
-23.49
-31.44
-42.52
-56.38
-71.57
-85.09
-92.86
-90.72
-76.03
-48.95
-13.42
23.01
51.55
65.24
61.83
45.36
24.57
9.13
5.37
14.17
31.33
50.71
67.38
79.02
85.10
85.28
78.20
62.68
39.82
14.32
-6.40
-15.40
-9.68
7.68
28.60
43.67
46.42
35.82
15.87
-7.04
-27.60
-43.53
-55.63
-65.93
-76.01
-85.94
-94.59
-100.61
-102.97
-100.99
-93.72
-79.53
-57.04
-26.73
7.83
40.12
62.76
70.73
64.04
47.96
30.70
19.86
19.40
28.93
44.93
63.00
79.46
91.65
97.29
93.76
78.90
52.75
19.12
-14.52
-39.45
-49.17
-42.44
-24.31
-4.07
9.10
10.02
-0.72
-18.10
-36.08
-50.87
-62.30
-72.75
-84.86
-99.24
-113.80
-124.67
-127.83
-120.28
-100.72
-69.99
-31.23
10.16
47.37
73.96
86.05
84.15
73.00
59.37
49.07
44.74
45.57
48.87
52.43
55.79
59.85
65.38
71.62
75.92
75.21
67.48
52.53
31.58
6.50
-20.43
-46.35
-67.47
-79.39
-78.37
-63.31
-36.86
-5.12
23.96
43.51
49.96
43.41
26.53
3.11
-23.11
-48.41
-68.72
-79.58
-77.09
-60.02
-31.60
0.53
26.54
38.24
32.80
14.41
-7.69
-23.45
-26.82
-18.04
-2.37
13.46
25.04
32.12
37.43
43.94
52.55
61.47
67.51
67.87
61.40
48.32
30.03
8.61
-13.23
-32.10
-44.53
-48.09
-42.41
-30.03
-15.54
-3.68
2.48
2.09
-3.94
-13.97
-26.90
-42.07
-58.48
-74.03
-85.33
-88.35
-79.71
-58.09
-25.24
13.62
50.58
77.25
87.54
80.46
60.93
37.73
19.71
12.18
15.19
24.53
34.87
42.62
47.06
49.36
50.51
50.04
45.84
35.92
19.93
-0.26
-21.20
-39.22
-52.57
-62.07
-70.48
-80.14
-90.86
-99.45
-101.00
-91.55
-70.34
-40.76
-9.21
17.59
34.65
40.33
36.07
25.20
11.74
-0.16
-6.62
-4.70
6.44
24.50
43.90
57.52
59.84
49.56
30.62
10.73
-2.38
-4.73
2.76
15.68
28.82
39.48
47.88
55.87
64.54
72.81
77.29
74.10
60.88
37.63
6.48
-28.92
-64.08
-94.16
-114.35
-121.49
-115.14
-97.99
-75.07
-51.91
-32.68
-19.12
-11.07
-7.87
-9.28
-15.85
-27.72
-43.41
-59.34
-70.72
-72.69
-61.99
-38.21
-4.19
34.29
69.76
95.01
105.20
100.25
85.04
67.51
55.11
51.47
55.48
62.67
68.36
70.15
68.77
66.26
63.54
59.06
49.16
30.28
1.05
-36.56
-78.22
-118.20
-151.09
-172.49
-179.37
-170.54
-146.98
-111.99
-70.96
-30.19
4.84
29.96
43.58
46.09
39.17
24.69
4.84
-17.62
-39.04
-55.42
-63.01
-59.07
-42.63
-15.11
19.23
53.74
80.77
94.11
91.64
76.56
56.07
38.18
28.57
28.68
36.11
46.83
57.53
66.52
73.02
76.08
73.17
61.16
38.77
8.61
-22.57
-46.03
-54.49
-45.83
-24.12
1.51
21.19
28.66
23.46
10.09
-5.14
-17.75
-27.00
-34.97
-44.78
-57.87
-72.95
-86.76
-95.57
-96.07
-86.13
-65.23
-34.90
0.74
35.36
61.84
74.55
71.94
57.98
40.42
27.38
23.69
29.20
39.69
50.01
56.88
60.08
61.41
62.54
63.19
60.93
52.76
36.81
13.65
-14.42
-44.17
-72.82
-98.28
-118.24
-129.94
-130.08
-116.22
-88.45
-50.43
-8.69
29.45
57.76
73.33
76.45
69.41
54.67
34.44
10.75
-13.93
-36.22
-52.33
-58.97
-54.50
-39.85
-19.15
0.85
12.94
12.25
-1.22
-22.02
-41.13
-49.96
-44.21
-25.50
-0.37
23.75
41.71
52.25
57.14
58.94
58.77
55.38
46.54
30.59
7.71
-19.93
-48.76
-74.97
-95.23
-107.17
-109.27
-100.81
-81.89
-53.56
-18.15
20.61
58.09
89.42
109.92
116.72
109.16
88.63
58.02
21.55
-15.81
-48.59
-71.96
-82.02
-76.23
-54.47
-19.82
21.08
59.48
86.12
94.91
85.59
63.87
39.42
21.11
13.60
15.95
23.01
28.44
27.82
19.84
6.17
-9.50
-22.85
-30.11
-29.13
-20.15
-6.35
7.28
16.02
17.13
10.57
-1.73
-17.37
-34.66
-52.75
-70.94
-87.88
-101.40
-109.52
-111.68
-109.48
-105.86
-103.60
-103.93
-105.11
-103.41
-94.48
-75.29
-45.54
-8.07
32.45
70.97
103.93
129.98
149.73
165.11
178.51
192.16
207.39
223.88
238.09
244.99
238.93
216.08
176.95
127.30
76.50
34.08
6.06
-6.76
-7.86
-2.32
5.91
15.12
25.17
35.87
45.77
52.22
52.52
45.23
30.68
10.65
-12.51
-36.91
-61.52
-86.11
-110.46
-133.80
-154.53
-170.50
-179.70
-180.99
-174.57
-162.16
-146.46
-130.22
-115.63
-103.97
-95.68
-90.57
-88.37
-88.84
-92.08
-98.43
-107.79
-119.45
-131.98
-143.43
-151.56
-154.31
-150.10
-136.93
-115.15
-86.29
-52.63
-16.83
18.52
51.05
78.90
100.88
116.49
125.80
129.66
129.37
126.44
122.11
117.19
112.05
106.74
101.25
95.41
89.44
83.84
79.13
75.60
73.12
71.18
69.03
66.10
62.18
57.75
53.79
51.27
50.75
52.04
54.26
56.07
56.43
54.92
51.99
48.71
45.79
43.25
40.26
35.37
27.07
14.13
-4.20
-28.01
-56.36
-86.37
-113.45
-131.88
-136.55
-125.34
-100.62
-68.87
-38.28
-15.53
-3.42
-0.31
-2.13
-4.98
-6.93
-8.36
-10.65
-14.67
-19.77
-24.24
-26.46
-25.93
-23.43
-20.63
-19.43
-20.70
-24.32
-29.36
-34.74
-39.74
-44.16
-47.63
-48.97
-46.30
-38.23
-25.36
-11.35
-2.15
-3.29
-16.61
-38.23
-59.24
-69.81
-63.10
-38.46
-1.30
39.70
75.80
101.11
113.16
112.51
102.22
87.88
76.37
74.44
86.29
111.04
141.85
167.07
173.70
151.24
97.73
20.86
-64.18
-139.39
-189.95
-210.16
-203.17
-179.45
-152.29
-132.09
-122.90
-121.93
-122.23
-116.58
-101.73
-78.47
-50.27
-20.82
7.61
34.12
57.97
77.71
91.34
97.36
95.90
89.32
81.25
75.41
74.08
77.05
81.64
83.81
79.81
68.72
53.78
41.02
37.29
46.73
68.15
94.94
117.60
127.65
120.66
98.81
68.34
36.30
7.66
-15.77
-34.50
-49.66
-61.90
-70.89
-76.06
-77.70
-77.11
-76.07
-76.29
-78.47
-82.26
-86.55
-90.06
-91.85
-92.02
-91.31
-90.80
-91.35
-92.95
-94.71
-95.18
-92.86
-86.90
-76.98
-63.41
-46.90
-28.24
-7.99
13.43
35.69
58.36
80.66
101.47
119.41
133.16
141.73
144.81
142.63
135.92
125.61
112.66
97.79
81.56
64.42
46.62
29.13
12.86
-1.42
-13.09
-22.19
-29.38
-35.81
-42.73
-50.90
-60.40
-70.59
-80.28
-88.03
-92.74
-93.97
-91.83
-87.31
-81.31
-74.50
-67.10
-58.53
-47.13
-30.51
-6.58
24.86
60.61
93.92
116.17
120.19
103.52
69.76
27.17
-14.40
-46.62
-64.42
-65.87
-51.52
-23.72
13.37
53.94
91.18
118.86
133.43
135.12
127.72
115.93
102.86
89.01
72.94
53.56
32.19
12.73
-0.00
-2.86
3.68
15.43
26.34
31.34
28.44
18.81
5.13
-10.41
-27.14
-45.67
-66.52
-89.17
-111.95
-132.78
-150.10
-163.62
-174.55
-184.70
-195.64
-207.82
-220.25
-231.03
-238.08
-239.69
-235.07
-224.43
-208.57
-188.40
-164.64
-137.72
-108.10
-76.42
-43.76
-11.46
19.27
47.68
73.66
97.63
120.12
141.42
161.69
181.07
199.80
217.95
235.13
250.22
261.62
267.64
267.06
259.35
244.49
222.78
194.80
161.77
125.97
90.85
60.56
38.76
27.47
26.15
31.66
39.15
43.47
40.89
30.28
13.35
-5.92
-22.84
-33.95
-38.26
-37.16
-33.43
-29.70
-27.11
-25.37
-23.65
-21.78
-21.12
-23.67
-30.79
-41.46
-52.00
-57.44
-53.89
-41.16
-23.26
-6.81
2.30
1.96
-5.06
-12.67
-14.72
-7.69
7.77
27.63
46.75
