1479998284.00
64.000000
-0.00
-0.00
-0.00
-0.00
-0.00
-0.00
-0.00
-0.00
-0.00
-0.00
0.00
0.01
0.01
-0.00
-0.03
-0.05
-0.05
0.00
0.13
0.36
0.66
1.01
1.37
1.72
2.06
2.40
2.79
3.25
3.80
4.42
5.06
5.67
6.24
6.78
7.33
7.94
8.64
9.51
10.47
11.42
12.28
13.03
13.75
14.60
15.75
17.32
19.50
22.09
24.83
27.49
29.94
32.28
34.81
37.91
41.82
46.86
52.67
58.78
64.74
70.31
75.63
81.14
87.40
94.72
103.49
113.18
123.14
132.76
141.78
150.39
159.15
169.07
178.42
189.12
201.70
216.55
232.97
248.61
259.44
260.70
248.51
221.25
180.74
130.68
75.80
20.04
-34.30
-86.48
-136.63
-184.92
-231.22
-275.02
-316.53
-356.14
-393.91
-428.91
-458.28
-477.68
-482.63
-470.53
-441.88
-400.81
-353.37
-305.56
-261.53
-222.84
-189.09
-159.13
-132.17
-107.78
-86.16
-67.39
-51.09
-36.57
-23.09
-10.27
1.79
12.58
21.61
28.61
33.81
37.77
41.19
44.59
48.10
51.48
54.26
56.06
56.73
56.47
55.68
54.84
54.24
53.94
53.75
53.33
52.41
50.86
48.75
46.32
43.86
41.57
39.54
37.76
36.12
34.54
32.95
31.32
29.65
27.94
26.21
24.51
22.87
21.35
19.99
18.80
17.78
16.93
16.19
15.52
14.88
14.22
13.55
12.90
12.32
11.83
11.46
11.18
10.92
10.63
10.23
9.71
9.08
8.43
7.81
7.29
6.91
6.68
6.63
6.75
7.00
7.28
7.46
7.40
7.03
6.41
5.73
5.22
5.03
5.14
5.38
5.51
5.32
4.80
4.06
3.31
2.72
2.32
2.07
1.88
1.68
1.47
1.27
1.13
1.02
0.90
0.72
0.45
0.07
-0.43
-1.01
-1.61
-2.13
-2.47
-2.55
-2.40
-2.12
-1.85
-1.77
-1.94
-2.36
-2.92
-3.48
-3.94
-4.23
-4.32
-4.21
-3.91
-3.44
-2.86
-2.27
-1.76
-1.41
-1.25
-1.21
-1.23
-1.23
-1.20
-1.17
-1.17
-1.23
-1.33
-1.42
-1.45
-1.41
-1.34
-1.29
-1.33
-1.48
-1.70
-1.90
-1.95
-1.81
-1.48
-1.04
-0.55
-0.07
0.41
0.93
1.48
2.00
2.42
2.71
2.92
3.20
3.67
4.38
5.25
6.12
6.85
7.39
7.81
8.20
8.66
9.19
9.69
10.09
10.31
10.42
10.51
10.74
11.17
11.82
12.58
13.33
13.97
14.45
14.76
14.92
14.93
14.80
14.54
14.18
13.75
13.30
12.85
12.38
11.85
11.24
10.60
9.98
9.47
9.11
8.87
8.64
8.30
7.79
7.12
6.38
5.69
5.11
4.63
4.21
3.80
3.42
3.13
2.96
2.89
2.86
2.78
2.60
2.33
1.98
1.60
1.21
0.89
0.67
0.60
0.68
0.84
0.99
1.05
0.98
0.81
0.61
0.41
0.22
0.05
-0.07
-0.06
0.12
0.47
0.90
1.25
1.38
1.28
1.00
0.71
0.53
0.53
0.72
1.03
1.38
1.70
1.93
2.05
2.05
1.94
1.79
1.70
1.75
1.99
2.39
2.87
3.37
3.86
4.39
5.04
5.84
6.75
7.68
8.45
8.92
9.03
8.80
8.37
7.94
7.70
7.71
7.81
7.69
6.92
5.18
2.35
-1.31
-5.26
-8.78
-11.16
-11.91
-10.79
-7.94
-3.84
0.81
5.16
8.44
10.14
10.07
8.41
5.58
2.13
-1.46
-4.81
-7.70
-10.01
-11.73
-12.86
-13.45
-13.60
-13.45
-13.13
-12.75
-12.35
-11.90
-11.32
-10.57
-9.67
-8.72
-7.89
-7.34
-7.14
-7.24
-7.50
-7.70
-7.68
-7.37
-6.82
-6.21
-5.69
-5.40
-5.31
-5.30
-5.18
-4.83
-4.24
-3.50
-2.73
-2.03
-1.42
-0.90
-0.45
-0.09
0.12
0.18
0.17
0.20
0.44
0.95
1.68
2.46
3.09
3.46
3.55
3.44
3.28
3.15
3.07
3.02
2.92
2.75
2.49
2.18
1.85
1.57
1.40
1.40
1.57
1.88
2.21
2.46
2.56
2.48
2.29
2.06
1.83
1.62
1.40
1.19
0.99
0.83
0.71
0.60
0.48
0.33
0.19
0.13
0.18
0.37
0.64
0.94
1.21
1.41
1.53
1.57
1.52
1.39
1.22
1.06
1.00
1.09
1.32
1.58
1.77
1.77
1.57
1.18
0.73
0.31
0.02
-0.10
-0.03
0.20
0.54
0.91
1.20
1.30
1.17
0.83
0.37
-0.07
-0.38
-0.48
-0.39
-0.17
0.10
0.36
0.60
0.81
0.98
1.05
0.98
0.75
0.39
-0.02
-0.36
-0.55
-0.58
-0.46
-0.27
-0.06
0.12
0.24
0.27
0.22
0.12
0.02
-0.01
0.06
0.21
0.37
0.47
0.45
0.32
0.12
-0.06
-0.15
-0.14
-0.04
0.07
0.09
-0.01
-0.22
-0.46
-0.61
-0.60
-0.44
-0.19
0.05
0.22
0.30
0.34
0.39
0.49
0.62
0.76
0.88
0.93
0.89
0.74
0.47
0.13
-0.18
-0.37
-0.38
-0.23
-0.04
0.10
0.08
-0.08
-0.31
-0.54
-0.71
-0.83
-0.91
-0.95
-0.87
-0.65
-0.27
0.21
0.66
0.95
1.03
0.93
0.73
0.52
0.37
0.31
0.34
0.44
0.59
0.73
0.84
0.86
0.78
0.60
0.36
0.10
-0.14
-0.33
-0.45
-0.49
-0.46
-0.40
-0.35
-0.35
-0.42
-0.51
-0.55
-0.45
-0.21
0.13
0.46
0.72
0.85
0.87
0.83
0.75
0.60
0.37
0.05
-0.29
-0.54
-0.62
-0.49
-0.25
-0.02
0.09
0.03
-0.14
-0.29
-0.32
-0.21
0.00
0.23
0.39
0.47
0.47
0.40
0.28
0.10
-0.11
-0.29
-0.38
-0.30
-0.08
0.19
0.37
0.35
0.08
-0.35
-0.83
-1.24
-1.52
-1.69
-1.83
-1.99
-2.20
-2.41
-2.58
-2.63
-2.49
-2.13
-1.57
-0.85
-0.09
0.58
1.02
1.16
0.98
0.55
0.01
-0.54
-1.03
-1.45
-1.81
-2.13
-2.41
-2.60
-2.65
-2.55
-2.34
-2.07
-1.80
-1.55
-1.28
-0.96
-0.58
-0.21
0.06
0.18
0.12
-0.06
-0.30
-0.56
-0.86
-1.20
-1.57
-1.88
-2.05
-2.03
-1.89
-1.78
-1.89
-2.33
-3.05
-3.85
-4.47
-4.67
-4.40
-3.74
-2.95
-2.28
-1.91
-1.89
-2.13
-2.49
-2.81
-2.97
-2.92
-2.62
-2.08
-1.34
-0.51
0.30
0.94
1.32
1.46
1.42
1.33
1.33
1.48
1.80
2.29
2.93
3.72
4.63
5.61
6.57
7.33
7.71
7.59
6.99
6.11
5.26
4.75
4.75
5.22
5.90
6.46
6.63
6.34
5.70
4.94
4.30
3.93
3.93
4.28
4.81
5.20
5.04
3.95
1.82
-1.01
-3.90
-6.11
-7.16
-7.06
-6.26
-5.40
-5.00
-5.19
-5.79
-6.43
-6.84
-6.94
-6.77
-6.44
-5.93
-5.06
-3.61
-1.42
1.36
4.22
6.38
7.05
5.81
2.95
-0.48
-2.99
-3.13
-0.16
5.70
13.29
20.95
27.00
30.36
30.82
29.07
26.43
24.31
23.65
24.54
26.17
27.11
26.02
22.34
16.82
11.47
9.08
12.15
21.62
36.02
51.20
61.31
60.57
45.46
16.30
-22.39
-62.94
-96.71
-116.61
-119.21
-105.59
-80.95
-53.14
-30.59
-20.17
-25.29
-44.96
-73.97
-104.59
-129.08
-141.90
-140.96
-127.31
-103.90
-73.98
-40.23
-4.90
29.63
60.44
84.46
99.50
105.25
103.56
97.53
90.08
82.80
75.72
68.15
59.67
50.75
42.76
37.18
34.87
35.67
38.57
42.19
45.36
47.40
48.19
47.98
47.24
46.46
46.00
46.00
46.35
46.78
46.93
46.55
45.51
43.70
40.93
36.97
31.79
25.95
20.74
17.76
18.05
21.04
24.08
22.95
13.32
-7.48
-39.24
-78.83
-121.00
-159.55
-188.26
-201.57
-195.51
-169.10
-125.62
-72.98
-22.35
14.78
30.16
21.56
-6.73
-45.63
-84.59
-114.94
-131.94
-135.05
-126.51
-109.52
-86.72
-59.70
-29.46
2.62
34.24
62.31
83.89
97.34
102.95
102.48
98.25
92.08
84.79
76.54
67.44
58.23
50.49
46.15
46.65
52.24
61.65
72.56
82.48
89.59
93.27
93.89
92.24
88.89
84.08
77.93
70.96
64.21
58.83
55.40
53.26
50.58
45.15
35.50
21.76
5.76
-9.84
-22.95
-33.34
-43.06
-55.80
-75.40
-104.07
-141.05
-182.25
-220.86
-248.75
-258.42
-245.09
-208.55
-154.00
-91.37
-33.27
8.41
25.89
17.92
-9.77
-46.60
-80.88
-103.73
-111.60
-106.17
-92.15
-74.24
-54.90
-34.09
-10.73
15.30
42.06
66.07
84.06
94.73
99.33
100.68
101.33
102.23
102.55
100.67
95.44
87.26
78.10
70.76
67.66
69.96
77.04
86.86
96.73
104.24
108.04
108.03
105.05
100.37
95.08
89.91
85.15
80.86
77.01
73.45
69.88
65.74
60.40
53.43
44.86
35.31
25.86
17.43
10.03
1.95
-10.54
-32.48
-68.19
-118.77
-180.05
-242.37
-292.65
-318.23
-310.99
-270.36
-203.82
-124.77
-48.74
10.67
44.76
51.09
33.23
-0.69
-40.44
-76.22
-100.98
-111.75
-109.52
-97.88
-81.04
-62.16
-42.64
-22.48
-1.30
20.79
42.79
63.18
80.64
94.33
103.92
109.30
110.37
107.21
100.32
90.81
80.55
71.76
66.42
65.58
68.95
74.95
81.29
85.84
87.38
85.98
82.72
79.00
75.74
73.11
70.67
68.00
65.13
62.72
61.68
62.44
64.45
66.03
64.86
58.88
47.21
30.65
11.57
-7.02
-22.97
-36.41
-50.30
-69.66
-99.45
-141.83
-194.23
-249.03
-295.38
-322.20
-321.44
-290.65
-233.84
-160.73
-84.66
-19.62
23.08
37.66
25.54
-5.19
-42.61
-75.09
-95.06
-100.56
-94.07
-79.71
-60.47
-37.25
-9.83
21.18
53.14
81.88
103.58
116.71
122.72
124.99
126.57
128.52
129.54
127.31
120.16
108.50
94.95
83.25
76.56
76.16
81.00
88.38
95.19
99.24
99.93
98.00
94.71
90.92
86.56
80.91
73.28
63.71
53.18
43.20
34.98
28.71
23.42
17.45
9.43
-0.99
-12.91
-24.62
-34.41
-41.54
-46.89
-53.01
-63.64
-82.59
-112.15
-151.58
-196.15
-237.27
-264.32
-267.74
-242.60
-191.22
-123.22
-53.00
4.65
38.81
45.23
26.79
-8.16
-48.69
-84.42
-107.98
-116.31
-110.51
-94.45
-72.81
-49.25
-25.54
-1.99
21.38
43.91
64.02
80.07
91.44
98.97
104.35
109.01
113.17
115.95
116.21
113.43
108.29
102.33
97.08
93.38
91.15
89.70
88.34
86.81
85.37
84.53
84.73
86.02
88.01
90.04
91.38
91.49
90.06
86.99
82.26
75.76
67.23
56.34
42.95
27.40
10.70
-5.60
-19.83
-31.00
-39.69
-48.62
-62.21
-85.54
-122.07
-171.53
-228.66
-283.73
-324.71
-340.54
-324.69
-277.56
-206.90
-126.13
-50.93
4.79
32.52
31.16
7.05
-28.42
-62.62
-85.74
-93.47
-87.24
-72.22
-54.11
-36.55
-20.12
-3.43
14.88
34.64
54.07
70.82
83.55
92.76
100.17
107.31
114.28
119.56
120.92
116.81
107.44
94.91
82.33
72.55
67.12
65.86
67.21
69.14
70.07
69.41
67.66
65.83
64.70
64.38
64.19
63.19
60.82
57.32
53.74
51.26
50.47
50.70
49.94
45.57
35.55
19.81
1.08
-15.42
-23.50
-18.76
-1.15
23.74
45.84
53.77
39.07
-0.57
-60.36
-129.74
-195.52
-244.91
-268.32
-261.26
-225.41
-168.65
-103.77
-45.61
-6.97
5.17
-8.15
-38.63
-74.20
-103.62
-120.09
-122.50
-113.99
-99.07
-81.06
-61.07
-38.76
-13.87
12.44
37.67
59.09
75.10
86.27
94.68
102.57
110.84
118.49
123.28
123.12
117.43
107.68
96.79
87.81
82.64
81.32
82.29
83.22
82.18
78.44
72.61
66.28
61.21
58.70
59.04
61.55
64.72
66.73
66.17
62.54
56.62
50.11
45.03
42.84
43.93
47.56
52.29
56.63
59.34
59.53
56.39
49.23
37.44
20.57
-1.72
-29.82
-64.43
-106.14
-154.47
-206.67
-256.94
-296.85
-317.14
-310.50
-274.31
-212.34
-134.39
-54.16
14.31
60.37
79.52
74.24
52.64
25.46
2.42
-10.62
-12.75
-7.10
1.35
8.29
11.61
11.68
10.24
9.12
9.21
10.34
11.70
12.82
13.87
15.51
18.24
22.02
26.23
30.29
34.31
39.21
45.86
53.75
60.30
61.46
53.71
36.22
11.84
-13.82
-34.97
-48.19
-53.57
-53.82
-52.02
-49.67
-46.08
-39.39
-28.30
-13.31
3.16
17.77
27.45
30.45
26.67
17.66
6.23
-4.18
-10.44
-10.66
-4.96
4.31
13.27
17.69
14.65
3.50
-13.93
-34.04
-52.81
-67.03
-74.89
-75.81
-70.04
-58.64
-43.73
-28.78
-18.06
-15.31
-22.07
-36.64
-54.55
-70.37
-79.91
-81.56
-76.13
-65.49
-51.14
-33.69
-13.31
9.31
32.38
53.31
69.72
80.33
85.29
85.91
84.01
81.12
78.05
74.81
70.99
66.36
61.25
56.66
53.86
53.63
55.68
58.57
60.25
59.08
54.60
47.85
40.85
35.67
33.52
34.24
36.52
38.49
38.62
36.29
32.08
27.54
24.56
24.54
27.86
33.52
39.34
42.53
40.50
31.89
17.41
0.18
-14.67
-21.62
-17.05
-1.29
20.37
38.83
44.19
29.52
-6.23
-57.37
-112.95
-159.96
-187.17
-188.31
-163.80
-120.46
-69.40
-22.90
8.82
19.92
9.85
-17.01
-52.79
-88.29
-115.21
-128.08
-125.47
-109.99
-87.16
-63.29
-43.27
-29.23
-20.46
-14.45
-8.44
-0.49
10.27
23.78
39.33
55.77
71.49
84.67
93.74
97.88
97.31
93.35
87.89
82.80
79.25
77.41
76.39
74.74
71.08
64.85
56.70
48.44
42.42
40.74
44.42
53.04
64.88
77.53
88.76
97.18
102.38
104.70
104.77
103.21
100.50
97.23
94.14
91.85
90.34
88.47
84.10
74.70
58.49
35.18
5.90
-27.58
-64.08
-103.75
-147.86
-197.47
-252.06
-308.40
-360.72
-401.98
-425.63
-427.02
-403.98
-357.09
-289.81
-208.86
-124.30
-48.43
6.89
34.12
33.14
11.80
-16.95
-40.33
-50.71
-47.72
-36.52
-23.60
-12.56
-2.50
10.45
29.69
55.37
83.80
109.37
127.43
136.41
138.22
136.48
134.39
133.17
131.95
128.84
122.50
113.19
102.81
93.96
88.65
87.28
88.62
90.45
90.79
88.78
84.98
80.84
77.82
76.50
76.31
75.84
73.74
69.43
63.49
57.32
52.31
48.99
46.49
42.90
36.36
26.31
14.15
2.93
-4.19
-5.71
-2.98
0.03
-1.91
-13.29
-36.21
-69.64
-109.59
-149.68
-182.14
-199.43
-196.21
-171.55
-130.18
-81.60
-37.51
-8.15
0.59
-11.70
-40.52
-78.23
-116.14
-146.55
-164.29
-167.75
-158.73
-141.25
-119.36
-95.29
-68.89
-38.88
-4.92
30.82
64.07
90.45
107.75
116.87
120.77
122.35
122.70
120.97
115.74
106.58
95.04
84.07
76.49
73.44
73.79
74.72
73.21
67.49
57.96
46.95
37.68
32.72
32.94
37.12
42.52
46.15
46.02
42.06
36.08
30.87
28.96
31.44
37.48
44.56
49.29
48.43
39.77
23.00
0.30
-23.40
-41.28
-46.76
-36.34
-12.16
17.49
40.34
44.64
23.92
-19.85
-76.33
-130.15
-166.41
-175.70
-157.21
-118.36
-71.63
-30.05
-3.44
3.50
-9.04
-37.06
-74.07
-112.07
-142.76
-158.85
-156.45
-136.84
-106.50
-74.71
-49.65
-34.81
-27.93
-22.89
-13.46
3.44
26.69
52.19
75.38
93.16
104.57
110.13
110.92
107.93
101.87
93.46
83.81
74.33
66.40
60.88
57.77
56.29
55.28
53.73
51.26
48.29
45.74
44.62
45.54
48.45
52.61
56.85
59.85
60.59
58.61
54.28
48.71
43.44
39.99
39.37
41.76
46.70
53.43
61.16
69.01
75.52
78.29
73.83
58.25
28.38
-16.70
-74.85
-140.84
-207.20
-265.55
-307.94
-327.87
-321.34
-288.01
-232.13
-162.66
-91.98
-33.14
3.44
12.85
-2.97
-35.92
-74.25
-106.30
-123.91
-124.61
-111.55
-91.37
-70.86
-53.94
-40.24
-26.20
-7.80
16.69
45.51
74.46
99.28
117.76
130.28
138.61
144.25
147.37
147.19
143.05
135.63
127.02
119.90
116.16
116.08
118.31
120.79
121.84
120.92
118.81
117.12
117.46
120.66
126.30
132.64
137.10
137.07
130.86
118.41
101.30
82.27
64.13
48.76
36.45
25.99
15.37
2.71
-12.76
-30.45
-48.58
-65.19
-79.42
-92.67
-108.85
-133.45
-171.27
-223.64
-286.48
-350.23
-401.96
-429.17
-423.44
-383.11
-313.91
-227.40
-138.18
-60.66
-6.16
19.18
15.62
-10.26
-47.23
-82.59
-105.93
-112.15
-102.39
-82.40
-59.20
-37.72
-19.06
-1.07
19.37
44.04
72.08
100.54
126.12
146.72
161.89
172.19
178.08
179.44
175.85
167.37
155.31
142.13
130.62
122.61
118.23
115.94
113.38
108.62
101.07
91.78
82.81
76.30
73.44
73.99
76.37
78.23
77.45
72.80
64.48
53.96
43.35
34.63
28.86
25.90
24.50
22.91
19.54
13.71
6.08
-1.26
-5.29
-3.17
6.27
21.17
36.22
43.85
36.65
10.04
-35.84
-95.92
-161.51
-222.27
-268.05
-290.55
-284.83
-250.83
-194.39
-126.69
-61.72
-12.30
13.64
14.62
-5.14
-38.08
-75.84
-111.02
-137.72
-151.87
-151.71
-138.31
-115.29
-87.64
-59.63
-33.15
-7.59
18.71
46.49
74.51
100.09
120.54
134.64
142.92
146.87
147.89
146.67
143.35
137.95
130.77
122.44
113.61
104.79
96.37
88.75
82.41
77.73
74.73
72.90
71.36
69.25
66.20
62.50
58.87
55.95
53.94
52.38
50.34
46.77
40.94
32.78
22.98
12.98
4.72
0.22
1.09
8.09
20.65
36.73
52.95
64.99
68.23
58.65
33.89
-5.95
-57.98
-117.14
-177.27
-232.50
-277.99
-309.84
-324.62
-319.24
-292.00
-244.12
-181.33
-113.63
-52.87
-9.27
11.60
9.73
-10.40
-41.77
-76.63
-107.84
-129.39
-137.19
-129.94
-109.71
-81.30
-50.75
-22.94
0.12
19.27
36.87
54.81
73.33
91.18
106.79
119.38
129.30
137.38
143.89
148.08
148.53
144.09
135.07
123.48
112.37
104.42
100.64
99.90
99.66
97.41
91.99
84.22
76.30
70.64
68.66
70.32
74.39
79.21
83.48
86.63
88.73
90.11
90.90
90.98
90.06
88.04
85.18
82.03
79.08
76.48
73.90
70.74
66.47
61.07
55.00
49.03
43.78
39.40
35.40
30.81
24.54
15.57
3.27
-12.62
-32.10
-55.10
-81.89
-113.56
-152.26
-200.66
-260.27
-329.41
-401.81
-467.06
-513.15
-530.39
-514.39
-466.89
-394.56
-306.66
-213.21
-123.96
-47.72
8.89
43.21
58.11
61.46
63.34
71.95
90.34
115.95
142.94
165.79
181.48
189.65
191.11
186.38
175.48
159.15
140.22
123.76
115.54
119.92
137.63
165.14
195.63
221.12
234.50
230.96
208.68
169.10
116.79
58.71
2.74
-44.40
-78.91
-100.74
-112.73
-118.87
-122.40
-124.96
-126.86
-128.19
-129.47
-131.65
-135.24
-139.64
-143.03
-143.13
-138.31
-128.22
-113.75
-96.43
-77.92
-59.63
-42.56
-27.45
-14.73
-4.53
3.30
9.08
13.18
15.87
17.30
17.52
16.58
14.64
12.03
9.22
6.71
4.90
4.11
4.60
6.65
10.49
16.12
23.18
30.89
38.19
44.12
48.06
49.97
50.24
49.45
48.09
46.45
44.74
43.13
41.82
40.91
40.22
39.28
37.48
34.39
30.04
25.01
20.23
16.68
15.05
15.59
18.11
21.90
25.85
28.49
28.39
24.63
17.30
7.60
-2.45
-10.76
-15.96
-17.78
-16.99
-14.85
-12.44
-10.36
-8.71
-7.40
-6.44
-6.08
-6.54
-7.87
-9.74
-11.54
-12.62
-12.59
-11.47
-9.72
-7.93
-6.62
-5.97
-5.83
-5.87
-5.78
-5.40
-4.76
-4.01
-3.30
-2.72
-2.27
-1.92
-1.58
-1.14
-0.53
0.29
1.25
2.21
2.99
3.49
3.68
3.70
3.72
3.90
4.31
4.93
5.64
6.30
6.81
7.13
7.27
7.28
7.26
7.27
7.35
7.50
7.62
7.61
7.40
6.98
6.41
5.83
5.34
5.06
5.02
5.20
5.56
6.03
6.58
7.21
7.97
8.89
9.95
11.06
12.00
12.54
12.45
11.63
10.10
8.09
5.91
3.93
2.44
1.63
1.52
1.99
2.80
3.64
4.22
4.30
3.75
2.54
0.70
-1.63
-4.30
-7.10
-9.82
-12.29
-14.40
-16.12
-17.51
-18.68
-19.70
-20.63
-21.47
-22.18
-22.69
-22.96
-22.98
-22.76
-22.32
-21.71
-20.99
-20.18
-19.29
-18.31
-17.23
-16.10
-14.99
-13.95
-12.93
-11.78
-10.32
-8.46
-6.27
-3.96
-1.77
0.16
1.86
3.48
5.14
6.84
8.48
9.82
10.72
11.11
11.08
10.78
10.33
9.82
9.27
8.66
7.95
7.16
6.32
5.51
4.83
4.33
4.01
3.82
3.68
3.54
3.41
3.34
3.32
3.34
3.29
3.07
2.61
1.88
0.93
-0.11
-1.07
-1.85
-2.41
-2.84
-3.26
-3.78
-4.39
-4.98
-5.34
-5.33
-4.94
-4.30
-3.67
-3.29
-3.25
-3.55
-4.04
-4.60
-5.12
-5.56
-5.93
-6.17
-6.23
-6.07
-5.65
-5.00
-4.17
-3.22
-2.16
-1.00
0.26
1.59
2.93
4.16
5.18
5.90
6.27
6.29
5.99
5.40
4.60
3.70
2.84
2.12
1.65
1.40
1.32
1.26
1.09
0.72
0.18
-0.42
-0.93
-1.19
-1.14
-0.75
-0.10
0.75
1.67
2.55
3.25
3.67
3.80
3.67
3.45
3.30
3.33
3.56
3.90
4.19
4.29
4.16
3.82
3.36
2.89
2.44
2.04
1.69
1.39
1.16
0.97
0.76
0.45
-0.01
-0.63
-1.35
-2.06
-2.66
-3.08
-3.34
-3.49
-3.65
-3.92
-4.38
-5.07
-5.97
-7.03
-8.11
-9.07
-9.71
-9.86
-9.41
-8.31
-6.62
-4.52
-2.22
0.06
2.19
4.11
5.82
7.32
8.55
9.44
9.86
9.81
9.34
8.62
7.85
7.18
6.66
6.21
5.70
5.05
4.28
3.53
2.95
2.65
2.58
2.58
2.46
2.09
1.50
0.86
0.33
0.01
-0.15
-0.30
-0.60
-1.10
-1.76
-2.40
-2.89
-3.18
-3.30
-3.33
-3.33
-3.28
-3.11
-2.74
-2.18
-1.49
-0.75
0.03
0.91
1.98
3.27
4.67
6.00
7.03
7.62
7.70
7.31
6.54
5.48
4.26
3.01
1.90
1.08
0.65
0.58
0.75
0.99
1.13
1.08
0.83
0.43
-0.08
-0.64
-1.23
-1.79
-2.27
-2.59
-2.69
-2.54
-2.23
-1.88
-1.61
-1.51
-1.55
-1.65
-1.73
-1.76
-1.77
-1.81
-1.91
-2.08
-2.32
-2.61
-2.91
-3.16
-3.30
-3.27
-3.08
-2.82
-2.64
-2.67
-2.96
-3.44
-3.98
-4.44
-4.74
-4.91
-5.03
-5.18
-5.45
-5.87
-6.51
-7.43
-8.65
-10.09
-11.48
-12.34
-12.13
-10.44
-7.21
-2.83
2.02
6.56
10.20
12.72
14.21
14.96
15.23
15.20
14.93
14.43
13.79
13.11
12.51
12.02
11.60
11.12
10.48
9.63
8.63
7.60
6.64
5.80
5.01
4.14
3.04
1.63
-0.06
-1.88
-3.65
-5.15
-6.19
-6.61
-6.37
-5.51
-4.23
-2.83
-1.66
-0.99
-0.96
-1.48
-2.33
-3.25
-3.98
-4.37
-4.36
-3.93
-3.16
-2.17
-1.15
-0.32
0.19
0.37
0.38
0.45
0.75
1.30
1.95
2.49
2.77
2.81
2.77
2.81
3.01
3.24
3.30
2.99
2.30
1.43
0.75
0.63
1.26
2.54
4.12
5.54
6.42
6.63
6.36
6.01
5.97
6.46
7.43
8.58
9.53
9.99
9.85
9.26
8.51
7.99
8.02
8.85
10.60
13.14
16.00
18.35
19.08
17.21
12.35
5.03
-3.35
-10.98
-16.31
-18.63
-18.15
-15.73
-12.40
-8.96
-5.88
-3.49
-2.09
-1.88
-2.85
-4.55
-6.16
-6.79
-5.89
-3.45
0.02
3.74
7.10
9.87
12.24
14.65
17.43
20.56
23.53
25.51
25.72
23.85
20.46
16.86
14.82
15.73
19.98
26.59
33.35
37.42
36.19
28.29
14.30
-2.91
-18.50
-26.77
-22.92
-4.98
24.98
60.93
94.54
117.83
125.70
117.29
95.71
66.37
34.84
5.28
-20.05
-40.42
-55.82
-66.33
-72.04
-73.30
-71.07
-66.87
-62.46
-59.17
-57.45
-56.72
-55.72
-53.20
-48.60
-42.31
-35.52
-29.59
-25.41
-23.03
-21.67
-20.22
-17.82
-14.28
-10.11
-6.26
-3.62
-2.71
-3.50
-5.49
-7.94
-10.17
-11.72
-12.43
-12.48
-12.23
-12.12
-12.54
-13.62
-15.25
-17.07
-18.64
-19.61
-19.82
-19.37
-18.50
-17.43
-16.37
-15.48
-14.94
-15.03
-16.00
-17.94
-20.63
-23.51
-25.88
-27.07
-26.78
-25.14
-22.59
-19.67
-16.83
-14.28
-12.01
-9.91
-7.89
-5.90
-3.99
-2.23
-0.70
0.56
1.55
2.26
2.68
2.82
2.70
2.34
1.82
1.22
0.60
0.06
-0.35
-0.60
-0.73
-0.80
-0.90
-1.10
-1.37
-1.61
-1.61
-1.19
-0.20
1.33
3.22
5.15
6.76
7.77
8.06
7.76
7.15
6.61
6.46
6.87
7.82
9.16
10.66
12.11
13.33
14.15
14.48
14.28
13.62
12.62
11.43
10.18
8.94
7.70
6.44
5.17
3.95
2.92
2.21
1.88
1.88
2.02
2.07
1.79
1.01
-0.31
-2.06
-3.96
-5.66
-6.75
-6.95
-6.19
-4.65
-2.75
-0.97
0.35
1.05
1.21
0.98
0.49
-0.30
-1.50
-3.21
-5.37
-7.72
-9.91
-11.65
-12.86
-13.77
-14.83
-16.59
-19.53
-23.87
-29.52
-36.02
-42.64
-48.49
-52.85
-55.44
-56.61
-57.24
-58.42
-60.95
-65.02
-70.08
-75.09
-78.90
-80.62
-79.91
-76.95
-72.31
-66.71
-60.84
-55.16
-49.75
-44.24
-37.77
-29.06
-16.76
0.19
22.05
47.96
75.95
103.35
127.54
146.59
159.68
167.02
169.49
168.13
163.84
157.17
148.22
136.78
122.54
105.53
86.75
68.50
54.12
47.04
49.31
60.19
75.76
89.80
95.82
89.35
69.65
40.02
6.69
-23.36
-44.57
-54.28
-53.05
-43.77
-30.27
-15.93
-2.92
7.83
16.18
22.13
25.43
25.48
21.62
13.43
0.99
-14.79
-31.94
-47.43
-57.58
-59.15
-50.81
-34.25
-14.34
2.15
8.77
1.82
-18.35
-47.61
-79.76
-108.81
-130.61
-143.52
-147.81
-144.78
-135.95
-122.82
-107.11
-90.83
-76.19
-64.94
-57.54
-52.59
-46.96
-36.98
-20.10
3.61
31.12
57.53
78.25
91.17
97.61
101.48
107.27
117.93
133.66
152.18
169.83
182.61
186.78
179.07
157.22
120.97
73.28
20.85
-27.05
-61.32
-76.34
-72.23
-54.81
-33.11
-15.64
-7.21
-7.75
-13.44
-19.33
-21.81
-19.92
-15.06
-9.57
-5.41
-3.68
-4.92
-9.45
-17.27
-27.27
-36.68
-41.70
-39.44
-29.95
-17.19
-7.68
-7.54
-19.33
-40.70
-65.54
-87.01
-100.47
-104.88
-102.14
-95.17
-86.28
-76.54
-66.35
-56.26
-47.33
-40.79
-37.47
-37.26
-39.05
-41.04
-41.25
-37.91
-29.91
-17.07
-0.19
19.16
39.17
58.46
76.61
94.04
111.46
129.16
146.54
162.23
174.59
182.21
183.82
177.91
162.58
136.12
98.33
51.91
2.90
-40.39
-69.88
-80.56
-72.48
-50.82
-24.00
-0.64
13.25
15.96
9.90
-0.04
-8.66
-12.39
-10.13
-3.27
5.47
12.99
16.56
14.59
7.08
-3.79
-13.86
-18.27
-13.82
-1.19
14.22
23.84
19.57
-2.46
-39.83
-84.81
-127.75
-161.04
-181.53
-190.44
-191.33
-187.59
-181.02
-171.97
-160.39
-146.96
-133.10
-120.21
-108.47
-96.13
-79.88
-56.57
-24.88
13.59
54.57
92.79
124.13
146.65
160.29
165.74
163.63
154.84
141.48
127.19
116.10
110.55
109.33
107.72
99.90
82.51
57.00
29.47
7.78
-2.26
0.42
12.07
26.21
36.73
40.25
36.82
29.15
20.85
14.66
11.28
9.54
7.63
4.55
0.75
-2.45
-4.34
-5.72
-8.40
-13.38
-19.00
-20.96
-14.69
1.02
21.74
38.15
40.05
21.40
-16.35
-64.65
-111.69
-147.53
-167.63
-173.45
-170.11
-163.20
-156.20
-149.73
-142.40
-132.23
-117.91
-99.30
-77.36
-53.55
-29.20
-5.06
18.74
42.41
65.73
87.82
107.22
122.56
133.48
140.77
145.49
147.40
144.28
132.97
112.08
84.37
56.96
38.45
34.32
43.48
58.35
68.70
67.10
52.79
31.54
12.03
0.93
-0.21
5.08
10.93
12.50
8.07
-0.86
-10.90
-18.85
-22.92
-23.30
-21.34
-18.57
-15.61
-12.30
-8.52
-5.08
-3.68
-5.74
-10.85
-16.05
-17.07
-10.99
1.32
14.69
21.69
16.13
-3.95
-35.42
-71.56
-104.98
-130.26
-145.09
-149.94
-146.95
-138.74
-127.63
-115.13
-101.78
-87.13
-70.29
-50.44
-27.38
-1.51
26.04
53.51
78.18
96.15
103.07
95.94
75.66
48.22
23.52
11.26
15.96
34.20
56.27
71.66
75.05
68.98
61.34
59.59
65.42
73.59
75.63
65.87
45.62
22.76
7.17
4.85
14.60
29.18
39.53
39.83
30.05
15.13
1.59
-6.09
-7.50
-6.00
-6.02
-10.43
-18.92
-28.56
-35.52
-36.97
-31.86
-20.91
-6.17
9.30
21.63
26.68
21.20
4.30
-21.65
-51.53
-79.20
-99.84
-111.32
-114.24
-110.67
-102.73
-91.95
-79.50
-66.87
-55.94
-48.34
-44.35
-42.34
-39.10
-30.93
-15.31
8.12
37.39
68.96
98.88
123.66
140.74
148.67
147.28
137.94
123.28
105.93
87.07
65.52
38.60
4.83
-33.26
-68.15
-89.66
-89.66
-66.72
-27.71
14.85
48.43
66.02
68.41
62.27
55.61
53.32
55.31
57.69
55.79
46.96
32.05
14.89
0.34
-7.90
-8.98
-4.77
1.15
5.48
6.57
4.92
2.29
0.69
1.87
7.13
17.49
33.24
52.96
72.53
85.29
83.87
63.32
23.73
-29.11
-85.69
-136.33
-174.46
-198.07
-208.95
-210.70
-206.98
-200.60
-193.63
-187.80
-184.38
-183.84
-185.19
-186.00
-182.78
-172.50
-153.55
-126.49
-93.70
-58.38
-23.44
9.30
39.20
66.36
91.00
113.05
132.14
147.87
160.23
169.93
178.36
187.08
196.91
207.05
214.57
214.77
202.41
173.70
128.28
70.49
9.23
-43.98
-78.36
-87.60
-72.29
-40.02
-2.68
27.94
44.34
45.64
36.73
25.26
17.72
16.95
21.68
28.27
32.87
33.05
28.50
20.85
13.28
9.65
13.21
24.93
42.13
58.37
64.97
53.95
21.26
-31.19
-95.66
-160.82
-215.31
-251.06
-265.15
-259.74
-240.39
-213.73
-185.41
-159.08
-136.32
-117.32
-101.61
-88.45
-76.68
-64.48
-49.68
-30.34
-5.77
22.95
52.94
80.19
100.86
112.65
115.92
113.77
111.01
111.87
117.81
126.91
135.25
139.81
140.59
140.57
143.22
149.33
155.34
154.67
141.38
113.97
77.01
39.68
11.91
0.39
6.35
25.84
51.74
76.49
94.15
101.67
99.02
88.73
74.59
60.52
49.88
44.97
47.32
57.38
74.06
94.46
114.30
129.50
138.11
141.41
143.27
147.85
156.84
167.77
174.56
170.10
149.67
113.27
65.58
13.79
-35.79
-80.38
-121.13
-161.32
-203.59
-247.54
-289.34
-323.31
-344.56
-351.12
-344.73
-329.88
-311.74
-294.81
-281.76
-273.56
-269.84
-269.33
-270.28
-270.99
-270.30
-267.77
-263.54
-257.63
-249.30
-236.86
-218.05
-190.80
-153.63
-106.01
-48.74
15.63
82.21
143.73
191.64
218.48
220.65
200.35
165.37
126.62
94.44
75.28
70.34
76.46
88.45
101.58
113.00
121.72
127.65
130.70
130.41
126.42
119.08
109.91
101.19
94.98
92.04
91.37
90.62
87.01
78.80
66.14
51.05
36.70
26.12
21.15
22.13
28.15
37.66
48.80
59.48
67.40
70.33
66.76
56.60
41.34
23.41
5.02
-12.63
-29.36
-45.12
-58.86
-68.11
-69.67
-61.26
-43.14
-18.75
6.23
25.85
36.02
35.76
26.93
12.93
-3.07
-19.43
-36.05
-53.67
-72.68
-92.40
-111.08
-126.64
-137.59
-143.65
-145.44
-143.78
-138.91
-130.09
-115.92
-95.25
-68.07
-36.05
-2.34
29.34
55.89
75.92
90.12
100.69
110.18
120.37
131.56
142.60
151.60
156.64
156.13
148.93
134.28
111.92
82.66
48.92
14.86
-14.34
-34.00
-41.55
-37.50
-25.19
-9.42
5.27
15.90
21.46
22.43
19.95
15.28
9.74
4.76
2.01
2.98
8.34
17.35
27.85
36.64
40.49
37.32
27.42
13.93
2.06
-2.65
2.99
17.89
36.37
50.02
51.18
36.01
6.02
-32.97
-73.49
-109.35
-137.33
-156.97
-169.31
-175.39
-175.66
-170.22
-159.55
-144.94
-128.31
-111.66
-96.28
-82.36
-69.16
-55.84
-41.93
-27.52
-12.76
2.73
20.17
40.97
65.40
91.50
115.14
131.64
137.85
133.57
121.28
104.67
87.24
71.84
61.06
57.37
62.21
74.43
89.35
99.81
99.10
84.50
59.18
31.13
9.54
0.59
5.07
18.69
34.67
46.91
52.12
50.26
43.80
36.24
30.71
28.77
30.09
33.02
35.57
36.63
36.24
35.04
33.25
30.38
25.96
20.75
17.07
17.59
22.97
30.11
32.47
22.89
-2.70
-42.78
-90.57
-136.99
-174.52
-199.66
-212.99
-217.41
-215.87
-210.28
-201.55
-190.40
-177.92
-165.45
-154.09
-144.27
-135.65
-127.16
-117.45
-105.36
-90.13
-71.32
-48.51
-21.00
11.94
50.31
92.12
133.06
167.25
189.12
195.26
185.32
161.86
129.74
95.40
66.13
48.78
47.53
61.73
85.12
107.50
118.86
113.83
94.25
68.16
45.66
34.03
34.80
44.01
55.16
62.63
63.75
59.04
50.96
42.37
35.54
31.60
30.71
32.26
35.08
37.57
38.43
37.55
36.62
38.58
46.05
59.04
73.62
82.60
77.99
53.94
8.76
-54.94
-131.33
-212.53
-289.55
-353.06
-394.74
-409.39
-396.91
-362.73
-316.09
-266.52
-220.55
-180.26
-144.40
-110.82
-78.22
-46.73
-17.05
10.54
36.34
60.66
83.04
102.34
117.53
128.47
136.34
142.73
148.28
152.27
153.31
150.92
146.76
144.24
146.34
153.10
160.45
161.59
150.33
124.64
88.35
49.93
19.10
2.83
2.87
15.63
34.22
51.47
62.36
65.28
61.86
55.59
50.13
47.89
49.42
53.70
59.02
63.58
65.95
65.25
61.54
56.24
52.25
52.84
59.62
70.66
79.87
78.43
57.96
14.09
-50.91
-127.85
-203.04
-262.53
-296.66
-303.12
-287.16
-259.05
-229.78
-207.01
-192.92
-184.90
-178.31
-169.60
-158.01
-144.79
-130.88
-115.14
-94.17
-64.15
-23.43
25.75
77.51
124.37
159.90
180.44
185.22
175.34
152.86
120.94
84.76
51.75
30.24
26.25
40.40
66.67
94.54
113.51
117.70
108.18
91.68
76.64
69.00
69.87
76.07
82.66
85.70
83.74
77.64
69.44
61.19
54.44
50.24
49.21
51.55
56.61
62.62
67.23
68.82
67.90
67.52
71.66
82.49
98.03
111.76
115.05
100.91
66.78
14.98
-48.91
-118.21
-186.57
-248.20
-297.92
-331.93
-349.15
-352.16
-346.39
-337.44
-328.06
-316.69
-298.84
-270.29
-229.75
-179.71
-124.96
-70.30
-19.03
27.06
66.84
99.14
123.13
139.05
148.33
153.29
156.41
159.53
163.64
168.99
174.89
179.39
179.16
170.17
149.37
116.78
76.66
36.98
6.97
-6.32
-0.82
19.71
47.14
72.28
88.25
92.54
87.08
76.45
65.23
56.11
49.36
43.74
38.15
32.61
28.17
26.08
27.02
31.20
38.73
49.70
63.49
77.61
87.01
84.80
64.65
23.85
-34.50
-101.58
-165.48
-215.20
-244.25
-252.26
-244.11
-227.25
-208.62
-192.56
-180.24
-170.65
-162.16
-153.91
-146.18
-139.61
-133.95
-127.46
-117.12
-99.89
-74.23
-41.13
-4.11
31.96
62.73
85.85
101.67
112.64
121.78
131.19
141.38
151.60
160.85
168.55
174.34
177.32
175.37
165.50
145.19
114.07
75.05
34.13
-1.08
-23.54
-28.88
-16.81
8.53
39.66
67.82
85.81
90.24
82.48
67.53
51.47
38.85
31.17
27.35
25.30
23.34
20.70
17.30
13.69
10.95
10.98
15.74
25.79
38.79
49.00
48.44
29.48
-12.11
-75.11
-152.33
-232.02
-300.46
-345.19
-358.19
-338.05
-290.68
-227.65
-162.84
-108.12
-70.07
-48.79
-39.48
-35.42
-30.73
-22.02
-8.28
10.27
33.26
60.29
90.20
120.24
145.75
161.56
164.37
154.40
135.37
112.34
88.95
66.00
42.55
18.77
-1.72
-12.36
-7.20
14.81
47.57
79.79
100.23
103.26
91.48
73.80
60.41
57.47
64.57
75.94
84.17
84.06
74.81
59.77
44.28
33.03
27.95
27.90
29.49
28.93
23.81
13.94
1.31
-10.65
-17.93
-16.98
-5.97
13.97
38.15
58.66
66.17
52.83
15.20
-43.76
-114.90
-185.10
-241.09
-273.34
-278.67
-260.53
-227.08
-188.01
-151.35
-121.65
-99.90
-84.71
-74.05
-66.21
-59.78
-53.04
-43.69
-29.37
-8.80
17.20
45.67
72.50
94.01
108.41
116.16
119.30
120.53
122.10
125.32
130.42
136.51
141.63
142.94
137.42
123.08
100.09
71.18
40.90
14.03
-6.10
-18.44
-23.90
-24.22
-20.93
-14.93
-6.81
2.59
11.83
19.16
23.11
23.00
19.24
13.11
6.46
1.27
-0.80
1.21
7.25
16.39
26.89
36.60
43.37
45.53
42.32
34.21
22.88
10.71
0.19
-6.89
-9.79
-8.92
-5.40
-0.51
4.73
9.72
14.16
17.78
20.17
20.85
19.42
15.78
10.17
3.09
-4.84
-13.25
-22.13
-31.80
-42.65
-54.76
-67.75
-80.86
-93.25
-104.41
-114.40
-123.68
-132.82
-141.92
-150.34
-156.68
-159.27
-156.76
-148.67
-135.53
-118.60
-99.35
-78.99
-58.30
-37.68
-17.43
2.04
20.13
36.17
49.53
59.76
66.62
70.09
70.38
68.03
63.94
59.33
55.54
53.75
54.62
58.10
63.38
69.01
73.37
75.02
73.17
67.80
59.58
49.64
39.18
29.21
20.28
12.44
5.40
-1.23
-7.62
-13.61
-18.72
-22.34
-24.09
-23.97
-22.33
-19.75
-16.77
-13.70
-10.71
-7.95
-5.63
-4.06
-3.47
-3.81
-4.72
-5.69
-6.26
-6.16
-5.43
-4.35
-3.26
-2.44
-2.05
-2.10
-2.53
-3.30
-4.36
-5.67
-7.17
-8.71
-10.14
-11.28
-12.07
-12.56
-12.91
-13.34
-14.02
-15.06
-16.40
-17.79
-18.75
-18.57
-16.56
-12.26
-5.84
1.84
9.45
15.63
19.55
21.18
21.16
20.41
19.69
19.26
18.98
18.55
17.74
16.58
15.20
13.77
12.34
10.95
9.66
8.64
8.13
8.31
9.19
10.52
11.85
12.73
12.82
12.07
10.71
9.13
7.74
6.87
6.69
7.19
8.12
9.04
9.36
8.63
6.68
3.83
0.77
-1.76
-3.34
-4.02
-4.27
-4.61
-5.29
-6.13
-6.75
-6.79
-6.24
-5.34
-4.45
-3.78
-3.28
-2.74
-1.99
-1.02
-0.02
0.76
1.16
1.17
0.90
0.44
-0.20
-1.10
-2.32
-3.85
-5.50
-7.00
-8.09
-8.60
-8.58
-8.17
-7.58
-6.90
-6.17
-5.38
-4.55
-3.80
-3.25
-3.02
-3.08
-3.31
-3.50
-3.48
-3.18
-2.56
-1.62
-0.30
1.46
3.73
6.43
9.32
11.97
13.96
15.03
15.27
15.11
15.23
16.19
18.10
20.45
22.22
22.34
20.19
16.04
11.08
6.97
5.26
6.64
10.65
15.83
20.37
22.91
23.22
22.37
22.17
24.35
29.68
37.52
46.03
52.80
55.67
53.28
45.38
33.09
19.00
6.92
1.03
4.36
17.25
36.57
56.31
69.66
71.67
61.48
42.70
22.04
6.33
-0.36
1.69
8.27
13.46
12.30
2.72
-14.14
-35.09
-56.72
-76.86
-94.80
-110.43
-123.16
-131.44
-133.24
-127.39
-114.64
-97.86
-81.06
-67.84
-59.80
-55.94
-53.21
-48.07
-38.25
-23.93
-7.60
7.23
17.93
24.05
27.47
30.90
36.10
42.45
46.96
45.62
35.19
14.34
-16.47
-55.55
-100.51
-147.88
-192.40
-226.86
-243.40
-236.20
-204.39
-153.25
-92.88
-34.57
13.13
46.90
68.36
81.80
91.47
99.85
107.51
114.12
119.26
122.64
123.78
121.78
115.52
104.21
88.37
70.48
54.92
47.06
51.44
69.67
98.70
130.50
153.75
157.17
133.81
84.67
19.80
-44.15
-89.53
-104.61
-88.62
-52.35
-13.64
10.29
10.01
-12.91
-47.63
-80.11
-99.31
-100.99
-87.28
-63.36
-33.98
-2.08
29.93
58.31
77.74
83.35
73.85
53.97
33.61
24.03
32.83
60.02
97.56
132.39
151.55
146.30
114.22
58.63
-13.08
-90.91
-162.90
-216.18
-239.34
-226.20
-179.57
-112.46
-44.98
2.20
15.77
-5.32
-49.99
-100.37
-139.21
-156.11
-149.28
-123.50
-85.97
-42.70
2.52
46.91
86.88
116.96
131.32
126.33
102.90
66.87
27.83
-3.71
-19.21
-13.91
11.93
52.92
99.73
140.71
164.56
163.18
133.98
81.26
15.80
-47.36
-92.97
-110.11
-96.13
-57.89
-9.75
30.95
49.99
40.97
6.86
-42.03
-92.23
-131.73
-152.60
-151.92
-130.79
-93.14
-44.63
8.30
59.02
101.34
129.51
138.99
127.42
96.27
52.28
6.90
-26.42
-36.79
-19.89
20.02
71.70
121.20
156.36
169.62
158.32
123.50
68.89
1.16
-69.29
-128.69
-163.04
-163.02
-128.80
-71.69
-11.04
32.38
44.11
21.04
-28.43
-88.32
-141.47
-174.86
-182.46
-164.95
-127.66
-78.24
-24.66
25.66
66.51
93.20
103.45
97.96
80.44
56.69
32.71
12.90
-0.69
-7.71
-7.93
-0.01
18.23
48.04
87.17
128.65
161.67
174.82
160.42
118.22
56.81
-8.34
-59.77
-84.20
-77.70
-47.26
-8.30
21.39
28.64
9.42
-30.59
-79.52
-124.57
-156.25
-170.05
-165.81
-145.64
-112.61
-70.40
-23.59
22.34
61.61
89.07
101.35
97.62
80.00
53.07
22.93
-3.95
-21.86
-26.70
-16.28
9.10
46.34
89.43
129.77
157.50
163.78
143.51
97.73
34.70
-31.32
-83.95
-109.92
-104.10
-71.67
-26.47
13.74
34.02
27.30
-3.78
-49.05
-95.30
-130.88
-148.61
-146.14
-124.96
-89.22
-44.66
1.87
43.27
73.20
87.06
83.36
64.48
36.73
9.28
-8.23
-8.55
10.42
44.86
86.01
123.20
147.21
152.60
138.06
104.91
55.61
-6.70
-77.17
-147.98
-207.97
-244.67
-248.26
-215.91
-154.12
-78.00
-6.93
41.63
57.55
40.76
-0.18
-52.16
-102.26
-141.02
-163.22
-166.69
-151.10
-117.46
-68.84
-11.32
46.25
94.36
125.83
138.12
133.72
118.41
98.86
80.26
65.24
54.05
45.39
37.32
28.39
18.79
11.18
10.47
22.46
50.99
95.15
148.14
198.42
233.04
241.67
219.82
170.30
102.68
31.14
-28.70
-63.83
-67.46
-41.41
4.07
53.18
89.67
101.97
86.62
48.44
-2.22
-53.59
-96.21
-124.82
-138.34
-138.72
-129.37
-114.16
-96.73
-80.22
-66.90
-57.62
-51.48
-45.97
-37.83
-24.62
-6.07
15.32
35.06
48.55
52.94
48.12
36.40
21.05
4.81
-10.82
-25.24
-37.74
-46.50
-48.54
-40.54
-20.38
11.32
50.52
90.26
122.53
140.51
140.77
123.97
94.08
56.34
14.95
-28.45
-74.91
-126.55
-184.02
-244.32
-299.98
-340.42
-355.38
-339.19
-293.89
-229.50
-160.87
-102.43
-63.08
-43.84
-38.96
-39.58
-37.66
-28.46
-10.81
14.18
44.07
76.01
106.62
132.21
149.49
156.52
153.66
143.39
129.16
113.85
98.67
83.06
65.48
45.08
23.27
4.33
-5.50
-0.09
23.46
62.66
109.33
151.50
176.92
176.62
147.51
93.45
24.86
-43.31
-94.95
-117.49
-106.42
-67.56
-16.25
27.90
48.22
37.16
-1.44
-54.81
-107.07
-145.02
-161.84
-156.90
-133.84
-97.92
-54.44
-8.46
35.06
71.21
95.29
104.03
96.53
74.98
44.67
13.10
-11.55
-22.29
-14.80
11.08
51.03
96.95
138.47
165.18
169.00
146.24
99.14
36.22
-28.95
-81.11
-107.88
-104.36
-75.36
-34.15
2.14
19.27
10.99
-19.36
-61.35
-102.52
-133.07
-147.92
-146.20
-129.52
-100.38
-62.16
-19.49
21.91
56.64
80.86
93.31
94.77
86.96
71.69
50.63
25.79
0.10
-22.64
-38.39
-43.56
-35.24
-11.74
26.66
76.40
129.85
175.60
200.95
196.44
160.40
101.25
35.45
-18.47
-47.27
-48.20
-29.68
-7.31
3.20
-7.63
-40.10
-86.64
-135.85
-176.91
-202.30
-208.45
-194.97
-164.00
-119.71
-68.22
-16.69
28.24
62.27
84.06
94.64
95.90
89.08
74.40
52.06
23.83
-5.97
-30.75
-43.51
-38.86
-14.87
25.97
76.93
128.20
168.62
187.84
179.05
141.63
82.63
15.89
-41.80
-76.30
-81.32
-60.53
-25.64
8.29
28.61
28.62
8.38
-27.17
-71.07
-116.43
-157.14
-187.66
-202.76
-198.29
-173.02
-129.86
-76.31
-22.57
21.35
48.97
59.32
56.61
47.80
39.36
34.61
32.80
30.23
22.74
8.33
-11.39
-31.05
-42.90
-39.33
-15.46
28.27
85.42
144.62
192.64
218.12
214.59
181.98
126.63
59.99
-3.83
-51.31
-73.20
-67.90
-42.22
-9.75
14.07
17.56
-3.04
-42.84
-91.13
-135.97
-168.14
-182.68
-178.20
-155.80
-118.11
-69.62
-17.19
30.93
67.02
86.28
88.62
78.52
63.18
49.44
41.08
37.82
36.20
32.12
23.54
12.12
2.66
1.17
11.94
35.33
67.13
99.69
123.78
130.98
115.70
76.92
19.49
-45.82
-103.98
-139.85
-143.29
-113.88
-61.73
-4.23
40.04
58.30
47.20
12.81
-33.30
-79.03
-115.50
-138.12
-145.33
-137.23
-114.40
-78.70
-34.20
12.62
53.79
82.34
94.72
91.82
78.19
60.03
42.45
28.00
16.77
7.74
0.76
-2.41
1.64
16.47
43.59
80.58
120.71
154.40
171.51
164.30
129.75
70.81
-3.66
-80.11
-143.03
-178.56
-178.63
-144.35
-86.20
-21.33
31.98
60.17
58.11
29.35
-16.63
-68.67
-117.33
-156.20
-181.44
-190.56
-181.99
-155.50
-113.46
-61.45
-7.77
38.65
70.89
85.94
85.16
73.34
56.58
40.10
26.88
17.41
10.49
4.59
-1.21
-6.56
-9.60
-7.29
3.84
26.60
61.58
105.90
152.89
193.13
216.70
215.82
187.53
135.28
68.95
3.01
-47.65
-72.31
-68.18
-41.68
-6.22
22.58
32.35
18.28
-16.07
-61.09
-105.47
-140.15
-160.25
-164.60
-153.99
-130.02
-94.73
-51.70
-6.45
34.37
64.61
80.91
83.71
76.70
64.76
52.06
40.88
31.90
25.27
21.47
21.28
25.33
33.41
44.40
56.84
69.62
82.31
94.96
107.66
120.04
130.99
138.71
140.64
133.43
113.29
76.82
23.03
-45.05
-119.33
-187.73
-236.97
-256.36
-241.27
-194.88
-127.60
-54.39
9.14
50.91
65.40
54.67
27.14
-5.67
-33.07
-48.47
-50.66
-42.90
-30.50
-18.42
-9.87
-6.44
-8.49
-15.43
-25.67
-36.20
-42.80
-40.99
-27.33
-0.82
36.34
78.91
119.55
150.43
165.23
160.96
138.93
104.45
65.03
27.81
-2.66
-25.30
-41.70
-54.18
-64.04
-70.92
-73.48
-70.90
-64.10
-55.70
-48.93
-46.05
-47.29
-50.97
-54.53
-55.94
-54.65
-51.73
-48.94
-47.82
-48.87
-51.46
-54.21
-55.79
-55.48
-53.38
-50.13
-46.39
-42.48
-38.29
-33.48
-27.82
-21.34
-14.21
-6.64
1.27
9.33
17.01
23.51
27.93
29.80
29.46
27.97
26.73
26.81
28.52
31.38
34.58
37.39
39.48
40.86
41.61
41.73
41.12
39.76
37.91
36.14
35.15
35.53
37.37
40.12
42.60
43.29
40.89
34.82
25.56
14.61
4.01
-4.27
-9.04
-10.06
-8.01
-4.06
0.53
4.60
7.26
7.87
6.31
3.10
-0.62
-3.44
-4.20
-2.53
1.12
5.71
10.11
13.41
14.97
14.31
11.26
6.30
0.89
-2.71
-2.23
3.41
13.39
25.10
35.32
41.54
42.92
40.25
35.02
28.53
21.34
13.51
5.06
-3.49
-11.24
-17.30
-21.28
-23.48
-24.68
-25.80
-27.48
-29.97
-33.10
-36.53
-39.99
-43.40
-46.91
-50.74
-55.08
-60.04
-65.68
-72.10
-79.40
-87.51
-95.97
-103.86
-109.92
-112.97
-112.34
-108.00
-100.51
-90.66
-79.19
-66.75
-54.07
-42.03
-31.30
-21.88
-12.77
-2.29
10.92
26.90
43.83
58.72
68.70
72.44
70.77
66.07
61.04
57.39
55.43
54.44
53.50
52.22
50.82
49.85
49.66
50.28
51.58
53.46
55.90
58.82
61.73
63.57
62.98
58.77
50.51
38.85
25.34
11.91
0.26
-8.61
-14.42
-17.41
-18.06
-16.90
-14.51
-11.53
-8.64
-6.41
-5.13
-4.77
-4.96
-5.27
-5.30
-4.94
-4.30
-3.65
-3.22
-3.10
-3.22
-3.39
-3.42
-3.22
-2.85
-2.47
-2.21
-2.14
-2.13
-1.97
-1.47
-0.50
0.88
2.48
4.00
5.18
5.85
6.00
5.68
5.02
4.12
3.04
1.82
0.57
-0.58
-1.44
-1.86
-1.82
-1.41
-0.81
-0.18
0.36
0.79
1.13
1.36
1.47
1.41
1.16
0.75
0.23
-0.30
-0.79
-1.19
-1.46
-1.56
-1.44
-1.13
-0.69
-0.25
0.11
0.40
0.70
1.18
2.01
3.21
4.67
6.15
7.36
8.08
8.26
7.97
7.46
6.99
6.78
6.91
7.34
7.83
8.04
7.48
5.61
2.03
-3.28
-9.69
-16.02
-20.81
-22.93
-22.12
-19.19
-15.70
-13.38
-13.37
-15.91
-20.39
-25.83
-31.33
-36.38
-40.78
-44.51
-47.46
-49.46
-50.27
-49.68
-47.56
-43.79
-38.37
-31.47
-23.62
-15.72
-8.84
-3.92
-1.33
-0.73
-1.15
-1.45
-0.79
1.00
3.32
5.07
5.08
2.68
-1.87
-7.30
-11.45
-11.87
-6.54
5.13
21.73
39.94
55.45
64.61
66.08
61.70
55.76
52.90
55.54
62.15
67.30
63.83
45.85
11.58
-35.56
-87.70
-134.94
-168.14
-181.30
-172.95
-146.06
-107.14
-64.37
-25.42
4.04
21.25
26.28
21.53
10.93
-0.92
-10.05
-14.66
-16.02
-17.97
-25.03
-39.70
-60.45
-81.67
-95.66
-95.92
-79.72
-48.92
-8.65
35.25
78.26
117.96
153.30
183.40
206.99
222.74
230.28
230.77
226.78
220.90
214.19
205.14
189.59
162.46
120.26
63.54
-2.14
-66.89
-119.45
-150.65
-156.44
-139.20
-106.85
-69.98
-37.90
-15.74
-3.94
-0.19
-2.32
-10.09
-24.47
-45.14
-68.31
-87.00
-93.89
-85.15
-62.68
-33.15
-4.20
19.87
39.79
59.65
82.76
107.77
127.83
133.25
116.23
75.25
16.70
-46.68
-100.35
-133.36
-142.11
-130.70
-108.28
-84.22
-64.32
-49.53
-37.81
-27.01
-16.66
-8.01
-2.66
-1.52
-4.48
-10.96
-20.13
-30.51
-39.33
-42.97
-38.52
-25.78
-8.01
9.66
23.39
33.11
42.81
57.91
81.64
112.48
144.33
168.81
178.48
168.93
139.89
95.13
41.52
-12.38
-58.54
-91.14
-108.10
-110.99
-103.44
-89.21
-70.90
-49.67
-26.09
-0.98
24.27
47.69
66.76
78.29
78.62
64.49
34.81
-7.44
-54.67
-96.44
-123.15
-129.71
-117.18
-91.37
-59.40
-26.39
5.66
36.54
65.34
88.59
100.54
95.45
70.30
26.97
-27.77
-83.95
-131.12
-160.99
-169.46
-157.40
-129.93
-94.80
-59.89
-30.86
-9.99
3.38
11.49
16.47
19.69
21.95
23.60
24.70
24.48
21.27
13.26
-0.13
-16.99
-33.07
-43.33
-44.24
-35.10
-17.67
5.73
33.97
67.43
106.45
148.95
189.30
219.30
230.94
219.24
183.82
129.01
62.49
-6.31
-67.71
-113.26
-137.34
-138.34
-119.42
-87.75
-52.08
-20.09
3.81
19.13
28.17
34.38
40.43
46.82
51.41
50.32
39.81
18.65
-10.47
-41.24
-66.11
-79.37
-79.60
-69.55
-53.90
-36.02
-15.99
8.43
38.88
73.32
105.13
125.12
125.17
101.59
56.52
-2.75
-65.99
-122.50
-163.19
-182.33
-178.66
-155.36
-119.44
-79.51
-43.16
-15.01
4.07
15.88
23.32
29.05
34.43
39.16
41.39
38.42
27.96
9.67
-13.68
-36.48
-52.13
-55.76
-46.29
-26.56
-1.28
25.82
53.67
83.25
115.12
147.09
173.58
187.41
182.72
157.26
112.98
55.45
-7.82
-68.56
-118.71
-151.56
-163.03
-153.14
-126.33
-90.27
-53.14
-20.99
3.66
21.24
33.44
41.62
46.28
47.46
44.86
37.72
24.55
3.82
-24.27
-56.26
-85.25
-103.15
-104.31
-88.47
-60.90
-29.49
-0.50
24.30
47.46
72.93
102.28
132.82
158.34
171.96
168.87
147.88
111.28
63.61
10.51
-41.90
-87.37
-119.89
-134.81
-130.58
-109.78
-78.76
-45.50
-16.55
5.02
19.85
30.62
39.85
48.52
55.89
60.13
59.09
50.68
33.25
6.45
-27.66
-63.92
-94.82
-112.88
-113.39
-96.46
-66.70
-30.93
4.56
35.55
59.68
75.01
78.61
66.80
37.15
-8.94
-64.70
-118.12
-155.14
-164.25
-141.14
-90.98
-27.08
33.80
77.41
96.78
93.36
74.71
50.14
26.85
8.30
-5.05
-13.73
-17.82
-16.75
-10.49
-0.47
10.05
17.02
17.34
10.27
-2.28
-16.31
-26.81
-29.59
-23.06
-9.14
6.99
18.67
20.45
10.50
-8.57
-30.67
-48.90
-58.35
-57.82
-49.58
-37.46
-24.45
-11.20
3.85
23.06
47.63
76.45
106.30
132.91
152.46
162.67
162.92
153.25
133.21
101.69
58.39
5.86
-49.38
-97.77
-130.08
-141.29
-132.85
-111.80
-87.63
-67.94
-55.92
-50.71
-49.46
-49.67
-49.80
-48.58
-44.42
-36.45
-26.33
-19.40
-23.07
-42.38
-75.48
-112.25
-137.70
-138.71
-110.49
-58.77
3.37
61.90
107.58
138.03
156.13
166.58
173.02
177.20
179.43
179.10
174.61
163.49
142.80
110.77
68.60
20.97
-25.03
-62.51
-87.33
-99.21
-100.92
-96.23
-88.07
-77.63
-65.19
-51.42
-38.26
-28.40
-23.45
-22.22
-21.08
-16.40
-7.51
1.83
5.10
-2.97
-22.37
-46.60
-65.56
-70.78
-59.79
-37.05
-10.74
12.18
29.48
43.95
60.46
82.18
108.21
133.65
151.72
156.02
142.52
110.55
63.07
6.57
-49.80
-95.88
-122.90
-126.21
-107.17
-72.76
-33.26
1.30
24.41
34.34
33.00
23.93
10.47
-4.43
-17.66
-25.92
-27.13
-22.35
-16.40
-16.19
-27.11
-49.40
-77.12
-100.56
-110.86
-104.19
-82.91
-53.55
-23.01
4.55
28.54
50.66
72.76
95.17
116.31
133.22
142.38
140.56
125.59
96.67
54.94
3.57
-52.28
-105.59
-148.45
-173.52
-176.15
-156.10
-118.28
-71.67
-26.51
9.06
31.23
40.85
42.04
39.77
38.05
38.62
40.55
40.55
34.32
18.53
-7.08
-38.53
-68.32
-88.28
-93.21
-83.11
-62.91
-39.38
-17.29
2.74
23.65
49.01
79.61
112.16
140.24
157.11
158.14
142.20
111.30
69.43
21.34
-28.25
-74.77
-113.51
-139.52
-148.39
-137.75
-108.95
-67.99
-24.32
11.84
33.37
38.61
31.37
18.62
7.12
1.14
1.82
7.94
16.70
24.22
26.00
18.19
-0.38
-26.46
-52.35
-68.63
-68.50
-51.14
-22.15
9.54
36.32
55.42
69.25
82.71
99.47
119.40
138.48
150.56
149.92
133.29
101.02
56.96
7.74
-38.93
-76.16
-99.51
-108.14
-104.90
-94.91
-83.42
-73.73
-66.18
-59.08
-50.43
-39.56
-27.67
-16.60
-7.43
-0.25
4.75
5.83
-0.39
-17.08
-44.06
-75.64
-101.52
-111.13
-98.98
-67.90
-28.01
8.37
32.66
43.68
47.42
53.20
68.64
96.09
131.61
166.52
190.15
193.36
171.44
125.94
65.11
1.85
-49.96
-79.82
-84.23
-67.40
-38.91
-9.42
13.41
26.80
31.99
31.77
28.35
22.96
16.74
11.47
8.70
7.93
5.40
-4.61
-26.41
-59.26
-96.03
-125.63
-137.92
-128.37
-99.60
-59.39
-16.48
22.77
55.34
80.17
96.31
102.04
95.56
76.29
45.56
6.49
-36.94
-80.70
-120.58
-151.90
-169.65
-169.61
-150.26
-114.51
-69.59
-25.14
10.31
32.38
41.70
42.37
39.21
35.45
32.25
29.71
27.76
25.86
21.87
11.49
-10.29
-45.90
-91.99
-138.83
-173.21
-184.00
-167.01
-126.68
-73.57
-19.47
27.20
63.23
89.50
108.44
121.77
129.87
132.68
131.12
128.06
127.73
133.84
147.34
164.82
178.82
180.50
163.39
126.65
76.09
22.22
-23.69
-53.67
-65.31
-61.34
-47.29
-28.72
-9.44
8.69
24.88
38.36
48.20
53.66
54.91
53.54
52.26
53.82
59.58
68.62
77.78
82.94
80.84
70.55
53.95
34.95
18.23
7.87
6.49
14.81
31.58
53.71
76.59
94.86
103.54
99.34
81.64
52.70
16.94
-20.41
-54.73
-83.14
-104.80
-120.78
-132.98
-143.16
-152.30
-160.66
-168.49
-176.80
-187.24
-201.26
-219.01
-238.91
-258.26
-274.40
-285.79
-291.92
-292.44
-286.27
-271.52
-246.62
-211.75
-169.42
-123.77
-78.68
-36.14
4.02
42.93
80.84
115.95
144.82
164.04
172.09
170.21
161.92
151.52
142.37
136.07
132.36
129.95
127.52
124.31
120.35
116.27
112.84
110.79
110.57
112.37
116.01
120.90
125.80
128.78
127.58
120.29
106.31
86.94
65.29
45.23
29.89
20.44
15.84
13.58
11.13
7.07
1.38
-5.06
-11.37
-17.33
-23.32
-29.77
-36.61
-43.06
-47.98
-50.50
-50.50
-48.67
-46.17
-44.09
-42.98
-42.73
-42.83
-42.59
-41.59
-39.80
-37.50
-35.09
-32.94
-31.24
-30.15
-29.85
-30.52
-32.33
-35.18
-38.68
-42.22
-45.22
-47.28
-48.37
-48.71
-48.61
-48.29
-47.85
-47.24
-46.36
-45.10
-43.41
-41.28
-38.79
-36.07
-33.23
-30.28
-27.15
-23.76
-20.16
-16.62
-13.63
-11.64
-10.85
-11.05
-11.69
-12.13
-11.89
-10.86
-9.25
-7.42
-5.66
-4.11
-2.68
-1.11
0.91
3.71
7.46
12.14
17.50
23.04
28.15
32.29
35.09
36.44
36.51
35.64
34.28
32.87
31.75
31.15
31.09
31.42
31.89
32.16
31.98
31.26
30.03
28.47
26.79
25.17
23.68
22.34
21.17
20.24
19.65
19.43
19.35
18.90
17.48
14.66
10.58
6.08
2.38
0.63
1.36
4.24
8.17
11.70
13.59
13.21
10.73
7.02
3.31
0.69
-0.30
0.16
1.27
2.17
2.43
2.43
3.21
5.92
11.08
18.06
25.25
30.71
33.04
32.21
29.58
27.42
27.85
31.93
38.99
46.83
52.32
52.52
45.67
32.11
14.71
-1.52
-10.61
-7.64
9.16
36.91
68.39
93.93
104.80
96.24
69.15
29.35
-14.96
-56.46
-90.96
-117.92
-139.23
-157.30
-173.50
-187.37
-196.66
-197.91
-187.57
-163.54
-126.78
-82.21
-38.06
-3.33
15.67
17.95
8.14
-5.80
-16.42
-19.80
-16.31
-8.89
-0.39
8.33
18.18
30.30
44.27
57.61
66.86
69.32
64.55
54.58
42.98
33.34
28.01
27.63
31.35
37.52
44.27
49.87
53.00
52.87
49.41
43.39
36.25
29.72
25.19
23.27
23.63
25.25
26.93
27.77
27.47
26.37
25.24
25.03
26.50
29.91
34.76
39.73
42.86
42.11
36.10
24.86
10.40
-3.43
-12.01
-11.58
-1.02
17.17
37.26
52.03
55.25
43.74
18.27
-17.18
-56.99
-95.80
-129.69
-156.57
-175.90
-188.11
-193.73
-192.60
-183.36
-163.92
-132.98
-92.02
-46.33
-4.18
26.02
39.36
36.68
24.10
10.10
1.52
1.01
6.99
15.88
24.86
33.33
42.41
53.20
65.08
75.45
80.81
78.62
68.69
53.79
38.74
28.70
27.24
34.89
48.96
64.61
76.83
82.41
81.05
75.06
67.95
62.60
60.07
59.49
59.05
57.30
54.02
50.23
47.38
46.36
47.09
48.58
49.71
49.78
48.91
47.87
47.69
49.14
52.33
56.22
58.56
56.18
45.96
26.10
-2.89
-38.25
-76.08
-113.04
-147.56
-179.73
-210.11
-238.31
-262.47
-279.96
-288.66
-287.62
-276.50
-254.58
-220.60
-174.12
-117.77
-58.32
-5.43
32.03
49.87
50.57
41.80
32.57
29.07
32.82
41.52
51.73
61.36
70.30
79.38
88.74
97.09
102.04
101.59
95.40
85.17
74.31
66.57
64.67
69.00
77.56
86.62
92.39
92.64
87.61
79.65
71.84
66.28
63.10
60.74
57.27
51.89
45.56
40.50
38.80
41.13
46.35
52.08
55.94
56.52
53.72
48.18
40.48
30.53
17.44
0.14
-21.67
-46.89
-73.03
-97.04
-116.48
-130.52
-140.20
-147.73
-155.19
-163.39
-171.65
-178.36
-181.90
-181.06
-174.64
-161.07
-138.81
-107.66
-70.31
-32.69
-2.26
15.14
18.19
10.88
0.58
-5.53
-3.56
6.09
20.20
35.20
49.07
61.48
72.59
81.79
87.43
87.63
81.74
71.12
59.11
50.05
47.60
53.42
66.21
82.12
96.04
103.61
102.91
95.12
83.75
72.78
64.78
59.87
56.27
51.60
44.54
35.57
26.87
21.30
21.23
27.64
39.66
54.70
68.99
78.42
79.52
70.36
51.05
23.59
-8.61
-41.69
-72.18
-97.65
-117.18
-131.25
-141.30
-149.20
-156.52
-164.14
-172.14
-179.92
-185.85
-186.95
-179.10
-158.24
-122.63
-75.09
-23.59
20.66
47.48
52.11
37.49
12.98
-9.86
-22.17
-20.79
-8.09
10.59
30.24
48.11
63.62
76.95
87.55
93.87
94.04
87.25
74.83
60.38
48.60
43.58
47.09
57.85
71.97
84.63
92.21
93.64
90.49
85.62
81.36
77.97
73.57
65.34
51.51
32.93
13.36
-1.78
-7.60
-1.75
14.67
37.60
61.72
82.23
95.84
100.74
95.77
79.88
52.43
14.30
-31.22
-78.36
-120.40
-151.93
-170.87
-178.80
-179.94
-178.91
-178.76
-180.23
-182.14
-182.21
-177.65
-165.61
-143.77
-111.49
-71.04
-28.13
9.01
32.37
37.47
25.47
3.16
-19.70
-34.30
-35.96
-24.80
-4.59
19.67
43.79
65.22
82.70
95.48
102.70
103.59
97.94
86.69
72.42
59.05
50.93
51.36
61.18
78.09
97.28
113.31
122.18
122.71
116.34
105.60
92.29
76.68
58.33
38.02
19.18
7.51
8.59
24.64
52.55
84.42
110.56
123.46
120.59
104.62
81.29
56.15
31.97
8.13
-17.94
-48.40
-83.16
-119.40
-152.74
-179.25
-197.15
-207.42
-212.95
-217.19
-222.66
-230.40
-239.91
-249.34
-255.50
-253.91
-239.69
-209.57
-164.29
-109.94
-56.68
-14.97
8.95
15.80
12.51
8.37
10.33
20.28
35.62
52.15
67.24
81.04
95.25
110.77
125.97
136.82
139.02
130.53
113.29
93.14
77.81
73.83
83.75
104.71
129.49
149.41
157.60
151.49
133.11
107.69
81.24
58.72
43.33
36.82
39.99
52.57
72.80
96.99
119.99
136.77
144.16
141.90
132.23
118.20
101.59
81.72
56.00
21.63
-22.09
-72.47
-123.90
-169.87
-205.56
-229.52
-243.60
-251.51
-256.75
-261.12
-264.59
-266.09
-264.28
-257.60
-243.79
-219.96
-183.84
-135.78
-80.31
-26.01
16.85
40.19
41.28
24.21
-1.58
-24.91
-36.86
-33.35
-15.26
13.22
46.81
80.63
110.70
133.93
147.95
151.16
143.23
125.87
103.19
81.27
66.41
63.03
71.67
88.50
106.70
119.22
121.82
114.63
101.62
88.14
78.06
71.96
67.33
60.60
49.75
35.94
23.18
16.31
18.45
29.23
44.78
59.22
66.94
64.59
51.95
31.66
8.34
-12.63
-26.25
-29.05
-20.26
-2.69
17.47
32.17
34.20
19.79
-10.00
-49.72
-91.91
-129.83
-159.45
-179.86
-192.05
-197.03
-194.47
-182.81
-160.64
-128.57
-90.42
-52.77
-23.27
-8.04
-9.11
-23.49
-44.00
-61.76
-69.52
-63.84
-45.59
-18.68
12.01
42.38
69.79
92.59
109.42
118.77
119.31
110.85
95.31
77.22
62.61
56.94
62.79
78.54
98.89
116.88
126.79
126.00
115.41
98.15
77.65
56.34
35.50
16.20
0.32
-9.29
-9.83
-0.27
17.49
38.62
56.95
67.30
67.58
59.51
47.67
37.39
32.41
33.21
36.57
36.68
27.26
4.14
-32.91
-79.67
-128.74
-172.21
-204.29
-222.93
-229.86
-229.14
-225.27
-221.92
-221.04
-222.50
-223.80
-220.39
-207.06
-180.47
-141.52
-96.36
-54.44
-24.49
-10.32
-9.11
-13.15
-14.03
-6.65
9.09
29.87
51.99
73.66
95.15
116.97
137.91
154.43
161.94
157.35
141.01
117.25
93.31
76.66
72.27
80.77
98.10
117.11
130.49
133.62
126.37
112.62
97.99
86.95
80.81
77.60
73.87
67.08
57.24
46.86
39.39
37.32
40.82
47.92
55.58
61.17
63.48
62.85
60.59
57.86
54.64
49.39
39.44
22.25
-3.29
-35.95
-72.32
-108.01
-139.32
-164.43
-183.64
-198.48
-210.51
-220.41
-228.01
-232.52
-232.56
-225.87
-209.44
-180.51
-138.50
-86.88
-33.57
10.97
37.60
42.35
28.22
4.15
-18.90
-32.22
-31.94
-19.12
2.19
27.45
53.18
77.09
97.33
111.82
118.33
115.45
103.69
86.23
68.55
56.77
55.38
65.28
83.04
102.12
115.46
118.48
110.87
96.40
80.70
68.43
61.22
57.47
53.99
48.32
40.26
31.86
26.04
24.81
28.31
34.90
42.09
47.57
49.90
48.56
43.59
35.26
23.69
8.91
-8.94
-29.44
-51.60
-74.00
-95.11
-113.74
-129.31
-141.98
-152.33
-160.90
-167.94
-173.30
-176.15
-174.70
-166.21
-147.76
-117.87
-78.09
-33.68
7.39
37.01
49.60
44.11
24.27
-2.92
-29.47
-48.75
-56.74
-52.17
-36.17
-11.71
16.97
45.16
68.31
82.93
87.25
81.47
67.88
50.75
35.50
27.52
30.26
43.79
64.32
85.42
100.50
105.41
99.93
87.45
72.93
60.54
51.91
46.15
41.12
35.28
28.75
23.26
20.93
22.83
28.16
34.22
37.47
34.84
24.96
8.94
-9.67
-25.58
-33.32
-29.01
-12.02
14.42
43.82
68.17
80.24
75.43
52.62
14.11
-35.15
-88.86
-140.54
-184.67
-217.64
-238.05
-245.91
-241.28
-223.26
-190.31
-142.27
-82.45
-18.51
38.97
79.99
98.42
94.03
71.96
40.44
7.91
-19.03
-36.16
-41.39
-34.47
-17.09
6.95
32.20
52.97
64.86
66.11
58.08
44.76
31.97
25.56
29.68
45.09
68.60
93.89
113.86
123.45
121.38
110.25
94.68
78.83
64.63
51.60
38.25
24.08
10.62
0.90
-2.33
1.71
11.27
23.20
34.70
44.57
53.42
62.57
72.66
82.88
90.79
92.95
85.88
66.79
34.50
-9.95
-63.00
-118.84
-170.57
-212.01
-239.49
-252.56
-253.74
-247.18
-236.83
-224.61
-209.42
-187.68
-155.40
-111.00
-57.31
-1.74
45.89
76.90
86.81
76.85
53.15
24.17
-2.24
-20.57
-28.04
-23.88
-9.02
14.09
41.61
68.76
90.76
103.83
106.13
98.09
82.52
64.32
49.50
43.65
49.86
67.23
90.70
112.92
127.09
129.74
121.79
107.39
91.31
76.28
62.12
46.91
29.45
11.29
-3.12
-8.17
0.05
21.60
52.35
85.41
113.57
131.55
136.86
129.22
109.31
77.73
35.19
-16.52
-73.37
-129.04
-176.28
-209.47
-226.85
-231.16
-228.40
-225.06
-225.45
-230.51
-238.22
-244.90
-246.43
-238.75
-218.27
-182.84
-133.09
-73.72
-13.43
37.12
68.68
76.86
63.77
37.23
7.71
-15.26
-25.68
-21.81
-5.48
19.45
48.36
76.74
100.52
116.30
121.66
115.69
99.61
77.29
55.03
40.06
38.13
51.16
75.96
105.18
129.97
143.57
143.73
133.03
116.85
100.48
86.82
75.93
66.31
56.79
47.95
41.75
40.35
44.33
51.88
59.18
61.85
56.82
43.71
25.21
5.97
-9.21
-17.60
-19.74
-19.19
-20.92
-29.02
-45.18
-68.33
-95.63
-123.85
-150.31
-173.18
-191.04
-202.81
-208.00
-207.14
-201.30
-190.83
-174.17
-147.96
-108.96
-56.87
3.42
62.62
109.96
137.28
141.86
126.75
98.67
65.39
33.91
9.51
-4.11
-4.89
6.93
28.14
52.91
74.33
86.60
87.11
77.17
61.52
46.89
39.84
44.68
61.80
87.12
113.26
132.13
137.96
129.49
109.84
84.41
58.21
33.80
11.53
-8.67
-25.42
-35.43
-35.15
-23.38
-2.89
20.21
39.20
49.95
52.58
50.56
48.00
46.71
45.04
38.73
23.50
-2.61
-38.19
-79.15
-120.37
-157.54
-188.01
-210.75
-225.77
-233.35
-233.81
-227.60
-215.56
-198.68
-177.44
-151.28
-118.99
-80.01
-35.95
8.58
46.76
71.72
79.18
69.46
47.55
21.48
-0.53
-12.64
-12.52
-0.98
19.24
44.69
72.00
98.07
120.15
136.06
144.29
144.58
138.14
127.85
117.70
111.61
111.80
117.50
124.81
128.25
123.13
107.90
84.87
59.13
36.15
19.56
10.05
5.87
4.29
3.03
0.87
-2.72
-8.21
-16.31
-27.59
-41.96
-58.38
-75.13
-90.31
-102.47
-110.86
-115.40
-116.72
-115.78
-113.62
-111.10
-108.58
-105.91
-102.69
-98.53
-93.43
-87.79
-82.27
-77.46
-73.59
-70.45
-67.33
-63.17
-56.80
-47.11
-33.49
-16.10
3.75
23.83
41.55
54.77
62.60
65.61
65.40
63.76
61.90
60.10
57.99
55.15
51.59
47.93
44.96
43.16
42.36
41.77
40.44
37.74
33.62
28.59
23.38
18.79
15.61
14.63
16.61
21.95
30.38
40.71
51.00
59.18
63.70
64.08
60.89
55.24
48.28
40.82
33.37
26.37
20.38
15.89
13.07
11.53
10.38
8.69
5.87
2.06
-1.99
-5.31
-7.16
-7.44
-6.58
-5.31
-4.27
-3.72
-3.53
-3.36
-2.81
-1.70
-0.10
1.67
3.11
3.70
2.93
0.49
-3.67
-9.23
-15.52
-21.71
-27.11
-31.47
-35.20
-39.26
-44.75
-52.43
-62.42
-74.03
-85.90
-96.27
-103.35
-105.69
-102.61
-94.49
-82.72
-69.43
-56.72
-45.96
-37.35
-29.96
-22.38
-13.45
-2.84
8.83
20.36
30.47
38.38
43.96
47.73
50.53
53.25
56.50
60.46
64.78
68.63
70.89
70.48
66.85
60.30
52.13
44.36
39.14
37.82
40.10
43.84
45.55
41.74
30.40
12.14
-9.67
-29.95
-43.75
-48.11
-43.03
-31.29
-17.06
-4.33
4.45
8.61
8.76
5.94
1.06
-5.21
-12.12
-18.62
-23.37
-25.20
-23.72
-19.62
-14.51
-10.24
-8.18
-8.67
-10.97
-13.67
-15.32
-15.04
-12.77
-9.21
-5.43
-2.40
-0.56
0.22
0.51
0.99
2.06
3.69
5.46
6.80
7.33
7.01
6.24
5.57
5.48
6.08
7.13
8.18
8.78
8.78
8.33
7.81
7.62
7.96
8.78
9.77
10.55
10.80
10.36
9.20
7.39
5.12
2.67
0.47
-0.97
-1.23
-0.16
1.94
4.35
6.15
6.58
5.35
2.71
-0.65
-3.96
-6.66
-8.54
-9.68
-10.31
-10.64
-10.77
-10.70
-10.42
-9.96
-9.44
-8.97
-8.62
-8.35
-8.03
-7.52
-6.73
-5.72
-4.63
-3.67
-3.01
-2.70
-2.65
-2.72
-2.72
-2.53
-2.12
-1.54
-0.91
-0.38
-0.07
-0.02
-0.17
-0.38
-0.45
-0.28
0.15
0.70
1.19
1.45
1.44
1.19
0.84
0.52
0.31
0.26
0.34
0.50
0.68
0.81
0.84
0.74
0.54
0.28
0.05
-0.11
-0.19
-0.26
-0.38
-0.58
-0.83
-1.02
-1.03
-0.79
-0.33
0.25
0.80
1.22
1.48
1.62
1.68
1.70
1.62
1.34
0.80
-0.04
-1.06
-2.11
-3.02
-3.76
-4.44
-5.30
-6.57
-8.21
-9.90
-11.00
-10.85
-9.12
-6.02
-2.29
1.02
3.02
3.33
2.17
0.26
-1.57
-2.78
-3.23
-3.25
-3.33
-3.86
-4.94
-6.30
-7.49
-8.05
-7.76
-6.70
-5.20
-3.64
-2.31
-1.39
-1.06
-1.62
-3.37
-6.23
-9.34
-10.99
-9.10
-2.30
9.19
23.19
36.31
45.39
48.94
47.68
44.01
40.76
40.00
42.49
47.77
54.63
61.56
67.05
69.93
69.83
67.67
65.67
66.30
70.93
78.33
84.54
84.03
71.73
44.81
3.40
-49.62
-108.91
-166.76
-213.59
-239.71
-238.49
-209.67
-160.91
-105.83
-59.10
-30.74
-22.58
-28.85
-40.18
-48.54
-50.22
-45.71
-37.36
-26.72
-13.60
3.05
23.33
45.27
64.98
77.99
81.15
73.71
57.84
37.96
19.35
6.71
3.06
9.02
22.56
39.58
54.93
64.18
65.09
58.40
47.30
35.84
26.99
21.42
17.68
13.50
7.61
0.66
-5.14
-7.39
-5.12
0.43
6.26
8.99
6.24
-2.47
-15.78
-31.09
-45.24
-55.31
-58.69
-53.19
-37.27
-10.94
23.45
60.46
92.21
110.07
107.36
81.61
35.75
-22.73
-84.25
-139.90
-183.00
-209.03
-214.76
-197.98
-158.67
-100.70
-32.91
32.00
80.99
104.95
101.86
77.44
42.86
10.09
-12.08
-19.92
-14.32
1.00
21.50
43.22
63.32
79.83
91.29
96.61
95.16
87.28
74.84
61.16
50.39
46.11
49.90
60.52
74.27
86.35
92.84
92.10
85.15
74.83
64.06
54.24
44.67
33.43
19.22
2.96
-11.83
-20.38
-19.02
-7.24
11.74
32.24
48.56
57.28
58.18
53.32
44.91
33.58
17.95
-4.07
-33.16
-67.11
-101.20
-130.26
-151.26
-164.93
-175.26
-186.97
-202.92
-222.54
-242.41
-258.24
-266.71
-265.68
-253.35
-227.44
-185.86
-129.03
-62.21
4.14
57.23
86.92
90.31
73.11
46.83
23.58
11.05
10.76
19.46
32.65
47.52
63.62
81.26
99.39
114.55
121.61
116.20
97.04
67.10
33.24
4.20
-11.91
-9.95
10.50
44.56
83.17
115.74
133.51
132.58
114.93
87.04
56.87
30.51
10.44
-3.95
-14.49
-22.14
-26.36
-26.11
-21.54
-14.97
-10.46
-11.89
-20.81
-35.41
-51.07
-62.26
-64.82
-57.44
-41.61
-20.42
3.23
27.76
53.03
79.14
105.11
127.99
143.03
145.29
131.28
100.32
54.89
0.51
-54.59
-100.62
-128.04
-130.47
-107.26
-64.64
-14.34
30.11
57.90
64.24
51.06
25.21
-4.49
-30.36
-47.23
-52.48
-45.65
-28.20
-3.41
24.08
49.16
67.52
76.53
75.55
65.73
49.86
31.87
16.37
7.63
8.29
18.24
34.38
51.72
65.23
71.85
71.40
66.13
59.15
52.62
46.67
39.71
29.79
16.28
0.91
-12.62
-20.11
-18.77
-8.56
7.70
25.50
40.61
50.56
55.13
55.47
52.41
45.22
31.27
7.40
-28.07
-73.52
-123.88
-172.08
-211.66
-239.10
-254.61
-261.18
-262.71
-262.18
-260.93
-258.98
-255.45
-248.55
-235.14
-210.93
-172.05
-117.90
-53.48
10.62
61.57
89.66
92.78
77.39
55.36
38.34
32.98
39.31
52.79
68.13
82.33
95.27
108.15
121.24
132.61
138.78
136.73
125.93
109.21
92.15
80.88
79.58
88.75
104.83
121.79
133.58
136.47
130.07
116.81
100.00
82.15
64.29
46.73
30.48
18.05
12.68
16.55
28.91
45.70
61.02
69.72
69.68
62.41
51.74
41.56
33.70
27.24
19.15
5.98
-14.39
-41.71
-73.26
-104.79
-132.08
-152.34
-165.34
-173.38
-179.98
-188.42
-200.45
-215.75
-232.45
-247.64
-257.59
-257.68
-242.96
-209.86
-158.57
-94.65
-28.47
27.95
65.45
81.24
79.45
68.60
57.35
51.20
51.50
56.79
65.14
75.61
88.17
102.45
116.70
127.87
132.57
128.89
117.51
101.75
86.81
77.92
78.38
88.33
104.53
121.57
133.95
138.16
133.72
122.71
108.09
92.02
75.18
57.68
40.45
26.22
18.80
21.24
33.70
52.71
72.41
87.01
93.06
90.20
80.16
64.94
45.34
20.93
-9.05
-44.34
-82.91
-121.29
-155.44
-182.03
-199.17
-206.89
-207.17
-203.56
-200.27
-201.11
-208.38
-222.12
-239.86
-256.93
-267.06
-263.58
-241.21
-198.27
-138.48
-71.01
-8.26
38.32
62.47
65.35
54.38
39.44
28.56
25.35
29.31
38.11
50.06
64.83
82.49
101.67
118.86
129.14
128.29
115.04
91.98
65.00
41.77
29.44
32.50
51.17
80.96
113.78
140.59
154.60
153.62
140.47
121.05
101.25
84.39
70.60
58.08
45.36
32.85
22.86
18.23
20.45
28.75
40.28
51.42
59.30
62.71
62.16
58.94
53.94
46.54
34.66
15.86
-10.99
-44.46
-80.48
-113.80
-140.20
-158.18
-169.20
-176.58
-183.63
-192.38
-203.21
-214.81
-224.16
-226.59
-216.38
-188.78
-142.83
-83.65
-22.20
28.21
57.23
62.04
48.43
27.68
11.20
5.71
11.68
25.14
41.21
57.04
72.28
87.64
102.87
115.74
122.83
121.43
111.43
95.78
79.82
69.14
67.42
75.05
89.07
104.45
116.18
121.27
119.59
113.42
105.81
98.72
91.99
83.76
72.09
56.82
40.36
26.84
20.15
21.94
30.85
43.20
54.76
62.51
65.60
65.10
63.14
61.59
61.14
60.73
57.75
48.67
30.38
1.50
-36.72
-80.74
-126.27
-170.08
-210.99
-249.26
-285.40
-318.69
-346.89
-366.86
-375.54
-370.56
-350.13
-312.98
-258.99
-190.58
-113.93
-38.69
24.40
67.10
86.82
87.39
77.04
64.79
57.12
56.57
62.34
72.15
83.79
95.68
106.53
114.50
117.17
112.54
100.31
82.79
64.81
52.34
50.10
59.56
77.87
98.89
115.56
122.78
119.25
107.53
92.27
77.79
66.38
58.12
51.95
47.12
43.90
43.11
44.98
48.24
50.15
47.65
39.06
25.40
10.53
-0.06
-1.44
8.60
28.08
51.16
70.10
77.98
70.88
48.72
14.47
-27.71
-73.92
-121.00
-166.24
-206.99
-240.76
-265.91
-281.86
-288.36
-284.16
-266.47
-232.25
-181.15
-118.28
-54.37
-2.42
27.91
34.85
25.34
11.31
3.72
7.81
22.07
41.02
59.40
75.15
89.35
103.98
119.42
133.32
141.64
141.02
130.82
113.82
95.49
81.84
77.19
82.66
95.79
111.70
125.08
132.23
132.23
126.68
118.30
109.24
100.11
90.13
78.48
65.57
53.46
45.05
42.53
46.20
54.23
63.63
71.66
76.96
79.77
81.37
82.92
84.48
84.59
80.49
69.00
47.62
15.63
-25.45
-72.01
-119.48
-163.96
-203.73
-239.85
-275.22
-312.59
-352.42
-391.65
-424.07
-442.28
-440.19
-414.83
-367.02
-300.86
-222.69
-140.14
-61.16
6.85
58.35
90.82
105.59
107.36
102.66
97.74
96.88
101.77
111.97
125.78
140.82
154.49
163.90
166.29
160.08
145.84
126.83
108.49
96.73
95.82
106.44
125.20
145.84
161.65
167.89
163.11
148.81
128.02
104.02
79.85
58.67
44.02
39.21
45.81
62.23
83.53
102.98
114.78
116.08
107.42
91.28
69.95
44.12
13.12
-23.65
-65.38
-109.33
-151.58
-188.38
-217.33
-237.97
-251.56
-260.49
-267.28
-274.04
-281.88
-290.84
-299.89
-306.85
-308.15
-299.00
-274.24
-230.48
-168.82
-96.30
-24.98
32.03
65.65
74.72
66.13
51.29
40.71
39.86
48.34
62.21
77.36
92.00
106.49
121.57
136.38
147.88
152.11
146.50
131.57
111.32
92.03
79.69
77.65
85.27
98.24
110.47
116.70
114.70
105.84
94.02
83.37
76.15
71.90
68.18
62.33
53.19
41.86
31.08
23.71
21.09
22.34
24.60
24.24
18.53
6.91
-8.44
-23.19
-32.19
-31.31
-18.95
3.41
31.58
59.88
82.58
94.99
93.94
77.59
45.37
-1.56
-59.86
-123.60
-185.13
-236.84
-273.24
-291.60
-291.38
-272.89
-236.77
-184.88
-122.17
-57.67
-3.10
31.12
40.43
28.59
6.21
-14.05
-23.03
-18.16
-2.87
16.90
36.47
54.20
70.76
86.89
101.52
111.69
113.98
106.72
91.26
72.15
55.40
46.32
47.48
57.80
72.95
87.20
95.68
96.19
89.88
80.34
71.63
66.32
64.43
63.80
61.69
56.46
48.46
39.58
31.93
26.61
23.29
20.78
18.12
15.43
13.90
15.17
20.27
29.06
40.04
50.76
58.32
59.82
52.84
35.91
9.06
-26.04
-66.37
-108.42
-148.87
-185.29
-216.20
-240.94
-259.55
-272.27
-278.70
-276.90
-263.31
-234.18
-188.25
-129.28
-66.66
-12.83
21.64
32.80
25.19
9.34
-3.38
-6.03
1.89
16.11
31.45
45.29
58.23
72.36
88.52
104.60
116.13
118.57
109.99
92.47
71.80
55.16
48.26
53.06
67.00
84.12
97.60
102.54
97.81
86.20
72.74
62.22
57.02
56.32
57.01
55.65
50.48
42.35
34.24
29.63
30.63
36.89
45.69
53.06
55.34
50.33
37.91
19.90
-0.36
-18.75
-30.99
-33.52
-24.48
-4.61
22.20
49.07
67.53
69.63
50.54
10.34
-45.61
-108.26
-167.76
-216.44
-250.14
-267.34
-267.32
-248.84
-210.94
-155.35
-88.61
-21.95
31.67
62.24
66.48
49.03
20.07
-8.86
-29.27
-37.58
-34.30
-21.95
-3.19
19.95
45.75
72.16
96.26
114.42
123.25
120.78
107.85
88.54
69.38
57.27
56.89
68.66
88.45
109.23
123.98
128.66
123.52
112.54
101.10
93.33
90.35
90.45
90.56
88.25
82.93
75.54
67.67
60.70
55.77
54.14
57.15
65.53
78.14
91.36
99.78
98.26
84.12
58.04
23.27
-16.42
-58.35
-101.27
-144.25
-185.56
-222.45
-252.40
-274.64
-290.80
-304.24
-318.32
-334.77
-352.85
-369.51
-379.76
-377.64
-357.78
-317.52
-259.06
-190.03
-121.73
-65.14
-26.58
-5.47
4.63
12.08
22.91
38.61
56.98
74.95
91.16
106.54
122.77
140.11
156.13
166.43
166.88
156.03
136.25
113.09
93.54
83.31
84.89
96.76
114.15
130.88
141.74
144.21
138.97
128.92
117.40
106.52
96.55
86.55
75.67
64.30
54.30
48.07
47.16
51.03
56.91
60.59
58.24
48.06
31.44
12.82
-1.69
-6.61
0.65
18.26
40.23
58.36
65.04
55.90
31.02
-5.74
-48.60
-92.14
-132.40
-167.19
-195.55
-217.25
-232.69
-242.71
-247.72
-246.51
-235.80
-211.38
-170.86
-116.79
-57.77
-6.11
27.06
37.01
27.63
9.29
-6.30
-11.43
-4.80
9.81
27.23
44.31
60.80
77.94
96.01
112.84
124.36
126.75
118.67
102.48
83.72
68.99
63.52
69.23
84.25
103.70
121.69
133.55
137.35
134.09
126.59
117.62
108.32
97.74
83.93
65.93
45.30
26.17
13.65
11.30
19.28
34.11
50.31
62.82
69.04
69.23
65.37
59.22
50.90
38.67
19.93
-7.05
-42.08
-82.72
-125.18
-165.65
-201.49
-231.65
-256.10
-275.02
-288.41
-296.24
-299.04
-297.93
-293.63
-285.05
-268.73
-240.26
-197.14
-141.59
-81.05
-25.70
15.92
40.72
51.76
55.82
59.30
65.18
72.84
80.11
85.97
91.68
99.75
111.65
126.09
138.96
145.19
141.30
127.24
106.53
85.05
68.97
62.66
67.51
81.68
100.78
119.27
132.17
136.50
132.03
120.98
106.84
92.93
81.26
72.21
65.07
58.78
52.65
46.67
41.42
37.83
36.89
39.31
45.36
54.75
66.71
80.02
92.94
102.89
106.20
98.54
76.23
37.91
-14.10
-73.82
-133.42
-185.87
-226.92
-256.00
-275.23
-287.79
-296.42
-302.17
-303.82
-297.61
-278.33
-241.41
-185.88
-116.62
-44.40
16.97
55.66
66.45
52.80
25.10
-3.88
-23.92
-30.27
-23.54
-7.46
13.91
37.76
62.41
86.20
106.39
119.15
120.87
110.12
89.21
64.49
44.49
36.77
44.80
66.35
94.28
119.37
134.25
136.18
127.66
114.54
102.78
95.60
92.33
89.45
83.07
71.35
55.46
38.96
26.01
19.61
20.65
27.95
39.01
50.85
60.80
66.98
68.75
66.97
63.73
61.37
61.26
62.60
62.27
56.03
40.23
13.33
-23.90
-69.26
-120.12
-173.73
-227.02
-276.12
-316.68
-344.79
-357.96
-355.16
-336.03
-300.24
-247.87
-181.21
-106.69
-35.09
21.11
52.40
56.59
39.94
14.42
-7.50
-17.83
-14.89
-1.87
16.42
36.55
57.27
78.43
99.10
116.61
126.98
126.93
115.76
96.41
75.25
59.78
55.84
65.12
84.27
106.10
122.67
128.67
123.54
111.23
97.70
87.81
83.11
81.77
80.38
76.37
69.35
60.93
53.34
48.03
45.26
44.37
44.68
45.86
48.20
52.19
58.12
65.69
73.38
78.22
75.95
62.08
33.81
-8.38
-60.07
-114.04
-162.73
-200.87
-226.88
-242.38
-250.79
-255.54
-259.21
-262.99
-266.31
-266.32
-257.86
-234.85
-193.33
-134.79
-67.62
-4.94
40.49
61.92
61.61
49.14
36.33
31.55
36.59
47.73
59.52
68.72
75.87
83.98
95.76
111.15
126.93
138.32
141.32
134.47
119.11
98.51
76.60
57.02
42.94
37.39
43.20
62.08
93.24
132.33
171.78
202.87
218.53
215.77
196.43
166.14
132.20
101.42
78.72
66.57
64.88
71.28
81.67
91.25
96.00
93.93
85.61
73.60
60.86
49.24
38.69
27.57
13.58
-5.30
-30.17
-60.96
-96.45
-134.26
-171.34
-204.85
-233.30
-257.33
-279.51
-303.11
-330.40
-361.26
-392.91
-420.84
-440.35
-447.94
-442.10
-423.12
-392.51
-352.34
-304.71
-251.33
-193.29
-131.29
-66.33
-0.65
61.86
116.23
157.90
184.57
197.04
198.82
194.56
188.19
181.84
175.87
169.85
163.51
157.20
151.63
147.19
143.64
140.17
135.97
130.76
125.03
119.78
116.19
114.86
115.29
115.72
113.43
105.77
91.30
70.83
47.42
25.45
8.82
-0.57
-3.41
-2.40
-0.77
-0.81
-3.13
-6.85
-10.58
-13.33
-14.97
-16.00
-17.00
-18.19
-19.33
-19.91
-19.53
-18.23
-16.42
-14.73
-13.67
-13.40
-13.65
-13.91
-13.67
-12.70
-11.16
-9.47
-8.12
-7.45
-7.48
-7.97
-8.59
-9.05
-9.27
-9.35
-9.48
-9.83
-10.47
-11.21
-11.74
-11.62
-10.53
-8.36
-5.30
-1.75
1.84
5.19
8.31
11.41
14.86
18.88
23.52
28.64
34.04
39.49
44.68
49.07
51.86
52.19
49.43
43.47
34.86
24.61
13.95
4.03
-4.26
-10.36
-14.00
-15.26
-14.58
-12.73
-10.63
-9.07
-8.45
-8.75
-9.58
-10.51
-11.23
-11.65
-11.78
-11.71
-11.45
-11.03
-10.49
-9.90
-9.36
-8.98
-8.77
-8.66
-8.52
-8.25
-7.78
-7.13
-6.40
-5.71
-5.15
-4.77
-4.53
-4.37
-4.18
-3.89
-3.43
-2.81
-2.10
-1.39
-0.77
-0.30
-0.01
0.11
0.14
0.14
0.15
0.15
0.10
-0.04
-0.29
-0.63
-1.00
-1.35
-1.63
-1.87
-2.07
-2.26
-2.45
-2.64
-2.79
-2.87
-2.84
-2.68
-2.39
-2.00
-1.57
-1.18
-0.88
-0.70
-0.64
-0.70
-0.86
-1.09
-1.35
-1.57
-1.68
-1.61
-1.39
-1.08
-0.80
-0.63
-0.58
-0.61
-0.65
-0.66
-0.63
-0.63
-0.70
-0.91
-1.29
-1.85
-2.57
-3.40
-4.27
-5.07
-5.77
-6.39
-7.05
-7.92
-9.11
-10.59
-12.15
-13.42
-13.96
-13.39
-11.60
-8.75
-5.34
-2.07
0.40
1.67
1.68
0.70
-0.82
-2.47
-3.98
-5.31
-6.56
-7.91
-9.59
-11.79
-14.61
-17.95
-21.43
-24.43
-26.32
-26.75
-25.88
-24.38
-23.27
-23.38
-25.00
-27.66
-30.22
-31.33
-30.02
-26.14
-20.44
-14.26
-9.07
-5.88
-5.03
-6.15
-8.36
-10.52
-11.53
-10.53
-7.22
-1.94
4.32
10.18
14.33
16.00
14.99
11.46
5.59
-2.41
-12.18
-22.72
-32.28
-38.61
-39.72
-34.73
-24.21
-9.92
6.16
22.87
40.38
59.94
82.89
109.16
136.48
160.38
175.53
177.73
165.55
140.63
106.72
68.02
28.94
-5.55
-29.24
-35.89
-21.78
10.99
53.06
89.95
107.64
99.15
68.11
27.25
-7.77
-25.51
-23.26
-6.70
14.34
31.23
39.75
40.19
35.00
26.30
14.90
0.75
-15.26
-30.15
-39.10
-37.47
-23.50
-0.03
25.79
44.94
50.38
39.96
17.17
-10.84
-36.74
-56.26
-69.27
-78.53
-86.88
-94.79
-99.62
-96.96
-83.12
-57.25
-22.18
16.30
51.30
76.69
88.57
85.87
69.61
41.73
4.21
-41.02
-90.86
-139.47
-177.81
-195.50
-184.88
-145.39
-85.53
-20.63
32.87
64.05
71.39
61.93
46.52
34.01
27.78
26.08
25.18
22.79
19.52
17.74
19.40
24.30
30.35
35.12
37.86
40.14
44.89
54.59
69.44
86.71
101.72
109.69
107.60
95.12
74.37
48.97
23.06
0.56
-14.97
-20.66
-15.07
0.98
23.67
46.58
62.30
64.93
51.96
25.32
-9.81
-47.14
-81.48
-110.31
-134.12
-155.79
-178.97
-206.74
-239.14
-272.46
-300.09
-314.46
-310.37
-287.12
-248.58
-201.04
-150.34
-99.74
-50.17
-2.14
42.35
79.31
104.45
115.72
115.04
107.59
99.49
94.70
93.65
94.00
92.77
88.93
84.32
82.75
87.77
100.59
119.16
138.97
154.75
162.21
159.03
144.76
120.40
88.07
51.22
14.93
-14.22
-29.63
-26.94
-6.12
27.70
65.38
96.64
113.35
111.76
93.19
62.59
26.29
-10.14
-43.49
-73.44
-102.16
-132.93
-168.42
-208.38
-248.48
-281.21
-298.38
-294.25
-267.65
-222.23
-164.80
-103.07
-43.83
7.69
47.76
74.00
85.72
84.54
74.43
60.70
48.27
40.17
37.04
37.86
41.41
46.94
54.44
63.98
75.08
86.57
97.07
105.48
111.16
113.86
113.01
107.35
95.11
75.09
48.10
17.99
-8.58
-24.01
-22.69
-3.72
28.11
63.82
93.58
110.45
112.52
102.63
85.85
66.49
46.18
23.84
-3.00
-36.62
-77.71
-124.79
-173.78
-218.02
-248.97
-258.20
-240.41
-196.39
-134.05
-66.44
-7.42
33.27
52.88
55.37
48.37
39.25
32.52
29.46
29.38
31.21
34.31
37.96
40.87
41.23
37.58
30.56
23.80
23.06
33.66
57.57
91.43
127.09
154.39
164.97
155.20
126.92
86.23
41.18
-0.12
-30.70
-45.21
-40.78
-18.02
18.15
58.96
93.92
114.06
114.91
97.44
67.24
31.74
-2.61
-31.86
-55.21
-74.41
-93.05
-115.27
-144.45
-180.91
-220.80
-256.25
-277.88
-278.29
-255.00
-211.46
-155.64
-97.14
-44.21
-2.05
27.40
44.67
51.71
51.26
46.41
40.10
34.47
30.44
27.64
25.05
22.09
19.21
18.26
21.75
31.77
48.77
70.82
93.82
112.71
123.30
123.59
114.31
98.13
78.20
56.90
35.41
14.36
-5.12
-20.81
-29.78
-29.82
-20.79
-5.10
13.28
30.76
45.49
57.65
68.16
76.88
81.78
79.27
65.61
38.42
-2.11
-52.91
-108.08
-159.43
-197.39
-213.01
-200.84
-161.62
-103.31
-39.14
16.75
54.19
70.04
67.92
55.37
39.95
26.64
17.29
11.75
9.32
9.41
11.41
14.21
16.22
15.97
13.45
10.65
11.27
19.23
36.72
62.72
92.47
118.68
133.67
132.05
112.64
79.05
38.72
0.64
-27.25
-40.11
-36.99
-20.54
4.26
31.56
55.96
73.28
80.89
77.79
64.41
42.69
15.70
-12.89
-39.64
-62.53
-81.87
-100.67
-123.53
-154.48
-193.93
-236.98
-273.93
-293.64
-287.92
-255.04
-200.74
-136.08
-73.47
-22.56
12.14
31.42
39.54
41.79
42.54
44.12
46.84
49.56
50.61
48.63
43.43
36.33
29.88
27.38
31.85
44.99
66.30
92.79
119.42
140.56
151.49
149.87
136.06
112.47
82.42
49.31
16.69
-11.34
-30.05
-35.06
-24.20
0.87
34.20
67.15
91.17
100.77
94.85
76.47
50.83
23.05
-3.23
-26.55
-47.60
-68.66
-92.61
-121.51
-154.87
-188.45
-214.92
-226.21
-216.41
-184.33
-134.12
-73.84
-12.97
40.09
79.52
102.55
109.23
101.98
85.09
63.92
43.85
29.00
21.26
20.12
23.26
27.80
31.24
32.52
32.27
32.46
35.49
43.00
54.80
68.66
81.12
88.79
89.76
84.15
73.76
61.02
48.02
36.04
25.79
17.84
12.83
11.26
12.89
16.52
20.33
22.86
23.88
24.41
25.85
28.45
30.57
29.00
20.52
3.64
-20.70
-50.06
-82.39
-117.32
-155.67
-197.33
-238.93
-273.31
-291.55
-286.73
-257.16
-207.20
-145.39
-81.17
-21.99
27.65
65.75
91.73
105.86
109.45
105.17
96.64
87.26
79.02
72.01
65.21
57.82
50.35
44.79
43.57
48.25
58.48
72.04
85.70
96.55
102.99
105.08
103.81
100.08
93.81
83.77
68.21
46.02
17.94
-12.82
-40.72
-59.06
-61.94
-46.44
-14.36
27.41
68.46
98.10
108.98
99.68
74.75
42.32
10.43
-16.27
-37.87
-58.27
-82.63
-113.97
-151.01
-187.68
-215.13
-224.92
-212.27
-177.56
-126.53
-68.42
-13.02
31.89
62.17
77.43
80.15
74.25
63.95
52.76
43.08
36.04
31.65
29.07
27.35
25.98
25.20
26.10
30.20
38.77
52.30
69.93
89.47
108.00
122.49
130.53
130.73
122.71
107.06
85.34
60.02
34.28
11.67
-4.54
-11.89
-9.31
2.46
20.61
40.53
56.52
63.14
56.74
36.65
5.38
-32.19
-70.70
-106.26
-137.91
-167.69
-199.06
-234.30
-272.33
-307.90
-333.03
-340.11
-325.13
-289.37
-238.59
-180.43
-121.48
-65.82
-15.36
28.74
64.87
91.18
106.78
112.89
112.69
109.96
107.01
103.79
98.56
89.68
77.53
65.39
58.60
62.19
78.16
103.82
132.24
154.79
164.65
159.68
143.01
121.08
100.37
84.44
73.05
63.48
53.04
41.09
29.38
20.83
17.79
20.88
28.98
39.84
50.83
59.29
62.59
58.67
46.47
26.38
0.32
-29.05
-59.71
-91.38
-125.52
-163.72
-205.51
-246.81
-280.45
-298.61
-296.19
-273.00
-233.64
-185.06
-133.51
-82.78
-34.44
10.40
49.55
79.71
98.09
104.35
101.30
93.80
86.44
81.57
78.93
77.05
74.71
72.30
71.46
73.96
80.53
90.46
102.05
113.36
122.68
128.74
130.35
126.21
115.05
96.42
71.56
43.87
18.36
0.31
-6.57
-1.46
13.24
32.72
51.39
64.38
68.49
62.30
45.91
20.47
-11.94
-48.43
-85.54
-119.79
-148.51
-170.94
-188.73
-205.28
-223.88
-245.83
-268.52
-285.75
-290.08
-276.18
-242.97
-194.42
-137.58
-79.45
-24.70
24.66
67.80
103.34
128.86
142.14
143.01
134.55
122.31
111.85
106.19
104.57
103.60
99.66
91.63
81.77
74.65
74.57
83.15
98.38
115.46
129.07
135.57
134.30
126.99
116.24
103.80
89.85
73.58
54.57
34.07
15.38
2.98
0.64
9.55
27.28
48.28
65.76
74.03
70.25
54.94
31.09
2.49
-27.60
-57.13
-85.06
-110.65
-133.27
-152.82
-170.37
-188.19
-208.92
-233.21
-258.33
-278.42
-286.29
-276.85
-249.49
-208.29
-159.96
-110.75
-64.11
-20.61
20.39
58.64
92.06
117.62
133.31
139.63
139.42
136.37
132.87
129.15
123.85
115.73
105.49
96.27
92.51
97.74
112.40
133.13
153.73
167.67
170.45
161.04
141.53
115.68
87.44
60.20
36.85
20.28
13.31
17.68
32.80
54.85
77.25
92.51
94.57
80.68
51.97
12.61
-31.66
-75.16
-113.68
-144.91
-168.77
-187.20
-203.52
-221.98
-245.47
-274.21
-304.58
-329.76
-341.88
-335.05
-307.83
-263.72
-209.33
-151.27
-93.75
-38.11
15.46
65.83
109.69
142.65
161.63
167.05
163.14
155.96
150.51
148.42
148.06
146.15
140.68
132.65
125.85
124.99
133.12
149.86
171.25
191.09
203.14
203.16
190.01
165.63
134.29
101.40
72.37
51.57
41.66
43.07
53.76
69.34
83.61
89.82
82.34
58.59
20.02
-27.99
-77.91
-122.58
-157.65
-182.88
-201.53
-218.55
-238.21
-262.23
-289.18
-315.09
-334.88
-343.76
-338.42
-317.53
-281.57
-232.40
-173.01
-107.53
-41.44
18.62
65.99
95.76
106.74
102.16
88.91
75.07
67.07
67.73
76.02
88.39
100.68
109.97
115.19
117.11
117.66
119.09
123.00
129.61
137.45
143.69
145.43
140.90
130.46
116.50
102.42
91.20
84.28
81.34
80.89
81.08
80.13
76.31
67.54
51.56
26.71
-6.87
-46.41
-86.86
-122.53
-149.26
-165.95
-174.78
-179.85
-185.11
-192.74
-202.60
-212.90
-221.31
-225.77
-224.86
-217.61
-203.24
-181.03
-150.40
-111.17
-63.94
-10.49
46.00
101.18
150.08
188.07
211.81
219.84
212.75
192.96
164.12
130.58
96.81
66.80
43.46
28.19
20.71
19.37
21.84
25.79
29.44
31.80
32.54
31.89
30.38
28.59
27.04
26.03
25.59
25.48
25.39
25.04
24.33
23.46
22.82
22.79
23.45
24.32
24.44
22.76
18.65
12.31
4.76
-2.58
-8.49
-12.40
-14.54
-15.59
-16.28
-17.01
-17.86
-18.72
-19.49
-20.22
-21.01
-21.89
-22.70
-23.22
-23.25
-22.73
-21.79
-20.69
-19.73
-19.12
-18.99
-19.30
-19.92
-20.63
-21.20
-21.48
-21.38
-20.98
-20.44
-20.01
-19.87
-20.06
-20.45
-20.80
-20.84
-20.43
-19.62
-18.58
-17.57
-16.72
-16.07
-15.53
-14.97
-14.20
-12.94
-10.75
-7.02
-1.17
7.05
17.30
28.59
39.47
48.55
54.85
58.05
58.45
56.72
53.74
50.40
47.55
45.95
46.04
47.80
50.62
53.41
54.75
53.36
48.38
39.77
28.41
15.91
4.26
-4.86
-10.64
-13.38
-14.24
-14.63
-15.52
-17.13
-19.00
-20.50
-21.24
-21.35
-21.20
-21.09
-20.99
-20.58
-19.47
-17.53
-14.97
-12.29
-10.02
-8.47
-7.64
-7.24
-6.85
-6.12
-4.89
-3.25
-1.47
0.12
1.27
1.87
1.95
1.62
0.98
0.11
-0.88
-1.83
-2.52
-2.77
-2.53
-1.99
-1.51
-1.47
-2.10
-3.38
-5.08
-6.84
-8.32
-9.34
-9.84
-9.89
-9.58
-9.04
-8.38
-7.73
-7.19
-6.87
-6.82
-7.00
-7.33
-7.67
-7.86
-7.80
-7.45
-6.88
-6.22
-5.66
-5.31
-5.18
-5.19
-5.20
-5.09
-4.85
-4.58
-4.42
-4.48
-4.77
-5.20
-5.61
-5.84
-5.85
-5.70
-5.59
-5.70
-6.15
-6.90
-7.80
-8.64
-9.25
-9.53
-9.47
-9.10
-8.48
-7.71
-6.92
-6.26
-5.90
-5.90
-6.18
-6.54
-6.77
-6.82
-6.76
-6.78
-7.01
-7.38
-7.63
-7.47
-6.79
-5.81
-5.04
-5.08
-6.25
-8.38
-10.83
-12.77
-13.63
-13.48
-13.12
-13.74
-16.38
-21.29
-27.73
-34.19
-38.96
-40.93
-40.10
-37.55
-34.99
-33.91
-34.91
-37.35
-39.62
-39.86
-36.80
-30.40
-21.89
-13.35
-6.84
-3.50
-2.99
-3.55
-2.50
2.90
14.46
32.35
54.85
78.66
99.93
115.60
124.33
126.69
124.35
118.88
110.62
98.46
80.52
55.28
22.84
-13.85
-48.92
-74.34
-82.50
-69.26
-36.48
7.54
50.20
78.73
84.73
67.26
33.01
-6.71
-40.32
-60.15
-64.31
-55.86
-40.26
-22.55
-5.67
9.23
21.15
27.72
25.07
9.66
-18.74
-55.00
-89.30
-110.58
-111.06
-89.58
-51.89
-8.45
29.17
52.03
56.21
43.57
21.33
0.12
-8.99
1.75
33.66
80.67
131.25
172.75
196.25
199.46
186.24
163.69
138.39
114.12
91.70
70.83
51.41
33.65
17.33
1.55
-15.44
-34.64
-54.87
-72.62
-83.68
-85.40
-77.97
-63.98
-46.66
-28.37
-10.72
4.08
12.17
8.92
-8.36
-37.54
-71.30
-99.64
-114.48
-113.31
-99.51
-79.16
-56.57
-31.84
-1.77
36.01
79.08
119.34
145.80
149.78
129.23
89.81
42.08
-3.19
-38.98
-63.41
-78.36
-86.86
-91.08
-91.71
-88.75
-82.26
-72.71
-60.73
-46.90
-32.03
-17.66
-5.95
1.33
3.94
3.92
4.40
7.15
10.82
11.00
2.83
-15.76
-42.13
-70.03
-92.32
-104.12
-104.06
-92.92
-71.82
-41.22
-2.17
41.40
81.17
106.22
107.28
81.83
36.82
-13.14
-51.72
-67.97
-60.76
-38.51
-14.56
-0.47
-1.22
-13.74
-29.88
-40.73
-40.70
-29.17
-9.73
11.84
29.81
39.62
38.57
26.50
5.78
-18.80
-41.44
-56.95
-62.22
-56.55
-41.02
-17.79
9.96
38.26
62.75
80.19
90.06
94.85
98.95
105.32
112.65
114.70
103.32
73.67
28.59
-20.77
-59.24
-74.65
-63.99
-35.04
-2.77
17.73
17.92
-1.07
-30.01
-56.17
-69.17
-64.88
-46.02
-20.07
4.26
19.85
22.98
13.65
-4.93
-27.23
-46.88
-57.88
-55.53
-37.63
-4.79
38.82
85.73
126.73
153.67
162.66
155.99
140.96
126.14
116.71
111.27
102.54
81.47
43.08
-9.42
-64.87
-108.60
-128.98
-122.55
-95.19
-59.20
-28.18
-12.44
-16.41
-38.08
-70.50
-104.03
-128.83
-137.64
-127.61
-101.36
-66.41
-32.43
-7.21
6.16
10.13
10.27
11.36
15.20
20.47
25.29
29.47
34.69
42.97
54.81
68.90
83.42
97.77
112.65
128.56
143.61
152.67
149.22
128.81
92.21
45.85
-0.72
-39.02
-64.76
-78.28
-83.72
-86.74
-92.92
-106.40
-128.64
-156.74
-183.44
-198.75
-193.76
-165.16
-117.30
-62.08
-14.58
13.28
17.46
3.09
-18.26
-33.99
-35.45
-19.90
9.96
48.52
89.07
124.78
149.35
158.54
152.12
134.84
115.38
102.39
99.92
104.92
108.42
99.97
72.97
28.02
-26.97
-79.74
-118.34
-134.87
-127.80
-102.29
-68.52
-38.96
-24.49
-30.34
-54.05
-86.21
-113.95
-125.97
-116.99
-89.08
-50.47
-12.03
16.88
31.54
32.60
24.83
14.51
6.58
3.64
6.62
16.06
32.61
56.11
84.15
111.92
133.77
145.62
147.26
141.95
133.77
124.53
111.92
90.41
54.56
2.96
-59.47
-121.71
-170.16
-193.30
-186.11
-152.36
-103.96
-57.30
-27.92
-25.18
-48.57
-88.10
-127.90
-151.91
-149.62
-119.53
-69.38
-13.20
33.71
60.36
63.31
47.36
22.98
1.44
-8.98
-4.83
12.78
40.11
72.11
103.21
128.13
143.23
147.94
145.36
141.16
140.25
143.68
147.44
144.08
126.65
92.59
45.40
-6.28
-52.25
-84.50
-99.69
-99.74
-90.87
-81.70
-80.79
-93.98
-121.69
-157.96
-191.71
-210.28
-204.51
-172.51
-121.02
-63.24
-13.98
16.10
24.03
14.85
-1.14
-13.25
-14.40
-2.39
21.11
52.66
88.35
123.92
154.83
177.03
188.26
189.35
183.91
176.18
168.30
158.96
144.40
121.10
88.63
50.43
12.29
-20.64
-46.14
-65.46
-82.08
-99.81
-121.34
-147.26
-175.79
-202.33
-220.27
-222.82
-205.56
-169.20
-119.74
-67.15
-21.72
10.00
27.28
34.68
38.73
44.09
51.39
58.11
61.54
61.56
61.06
63.91
72.13
84.25
96.54
105.63
111.03
115.07
120.55
127.93
134.04
133.57
122.23
99.50
69.04
36.99
9.13
-11.04
-22.57
-26.50
-24.61
-19.09
-12.51
-8.39
-10.84
-23.91
-50.35
-89.94
-138.67
-189.12
-232.67
-262.03
-274.41
-272.05
-260.56
-245.97
-231.56
-217.11
-199.81
-176.61
-146.12
-109.30
-68.85
-28.39
8.03
36.28
52.75
55.86
47.63
34.35
25.16
29.20
51.92
92.80
145.30
199.13
243.93
272.68
283.20
277.97
262.27
241.77
220.84
201.63
183.82
165.34
143.33
115.17
80.11
40.02
-0.58
-35.75
-60.21
-71.71
-72.20
-67.17
-63.70
-67.39
-80.47
-101.25
-125.08
-145.91
-157.63
-155.07
-135.21
-98.61
-50.26
0.89
44.28
71.35
78.75
69.43
51.12
32.77
20.51
15.28
12.80
5.84
-11.65
-41.43
-80.01
-119.86
-151.63
-167.54
-163.09
-137.84
-95.11
-40.87
16.96
69.62
109.12
130.10
131.73
118.52
99.33
84.22
80.97
92.50
116.46
146.98
177.54
202.82
219.83
227.43
225.44
213.94
192.85
161.95
120.89
69.30
6.33
-68.83
-154.91
-248.10
-341.09
-423.83
-485.90
-519.95
-524.32
-503.77
-467.30
-424.69
-383.65
-348.24
-319.30
-295.95
-276.85
-260.66
-245.99
-231.64
-215.83
-197.54
-176.94
-155.43
-134.66
-115.66
-97.97
-79.67
-57.33
-26.64
16.13
72.50
140.58
214.28
284.32
341.15
377.10
389.62
381.67
359.96
331.96
303.00
274.82
246.24
216.29
184.91
154.35
128.32
110.16
101.13
99.73
102.33
104.74
103.88
98.18
88.46
76.83
65.47
55.94
49.03
45.14
45.00
49.69
59.77
74.85
92.44
108.01
116.76
116.32
108.71
100.30
98.86
108.91
128.64
150.06
163.05
160.85
143.95
119.73
97.96
85.93
84.76
89.76
93.56
90.06
76.29
52.57
19.93
-20.49
-66.65
-114.11
-155.97
-185.16
-197.47
-194.33
-182.49
-170.39
-163.24
-160.14
-155.68
-144.58
-126.59
-107.45
-95.83
-97.57
-111.55
-129.71
-141.18
-137.50
-115.77
-78.29
-30.41
21.88
72.75
116.46
147.55
162.19
159.91
144.67
123.27
102.80
87.40
76.84
67.04
52.35
28.11
-7.41
-51.95
-99.40
-141.03
-167.85
-173.95
-159.27
-130.79
-100.30
-80.10
-77.94
-93.96
-120.91
-147.76
-164.65
-166.52
-154.18
-132.40
-106.77
-81.02
-55.88
-29.43
1.47
39.33
84.68
135.02
184.76
226.47
253.27
261.40
251.96
230.73
205.66
183.40
166.93
155.11
143.99
129.47
108.51
79.65
42.77
-0.92
-47.93
-92.12
-125.83
-142.67
-141.06
-125.91
-107.56
-97.47
-103.11
-124.51
-154.64
-183.02
-200.52
-203.07
-192.13
-172.41
-148.59
-122.87
-94.33
-60.19
-18.06
31.88
85.74
136.50
176.09
198.46
201.96
190.11
170.24
150.18
135.58
127.91
124.85
122.25
116.45
105.15
87.30
61.81
27.37
-16.13
-65.61
-113.86
-151.23
-169.09
-164.13
-140.68
-108.95
-80.20
-61.46
-53.29
-51.40
-50.92
-50.01
-50.62
-55.84
-66.27
-78.12
-84.25
-77.51
-53.83
-13.79
37.76
93.44
144.98
184.80
207.23
210.04
195.41
169.54
140.55
115.70
98.71
88.91
82.52
74.64
60.87
38.13
4.82
-38.68
-89.05
-139.51
-180.53
-203.02
-201.96
-179.35
-144.41
-110.07
-87.31
-80.32
-85.37
-93.92
-98.18
-95.35
-88.47
-83.24
-83.37
-87.69
-90.42
-84.27
-64.04
-28.85
17.92
70.13
120.61
162.51
190.39
201.34
195.82
177.94
154.20
131.01
112.52
99.35
89.31
78.43
62.91
40.10
9.22
-28.17
-67.72
-102.48
-124.46
-127.37
-109.56
-75.34
-34.20
2.57
25.94
31.86
21.54
-0.49
-28.82
-58.86
-86.84
-109.12
-121.92
-122.10
-108.32
-81.49
-44.47
-0.93
45.65
91.93
133.91
166.66
185.21
186.53
171.36
144.78
114.50
88.12
70.49
62.51
61.56
63.22
62.59
55.30
37.74
7.63
-34.75
-85.30
-135.83
-175.39
-193.49
-184.87
-152.72
-108.94
-70.14
-50.60
-55.77
-79.78
-108.80
-128.61
-131.99
-121.44
-106.50
-96.93
-96.71
-102.20
-104.89
-96.53
-73.17
-36.30
9.09
56.94
101.65
138.49
163.42
173.65
168.89
151.99
128.37
103.92
82.56
64.59
47.03
25.00
-5.04
-42.94
-84.18
-121.05
-145.23
-150.70
-135.78
-103.47
-60.79
-16.59
20.27
42.54
46.32
32.28
6.08
-23.05
-45.82
-56.71
-56.40
-50.98
-48.06
-52.13
-61.79
-70.50
-69.78
-53.37
-19.65
27.91
82.13
134.17
175.83
201.23
208.33
199.36
179.92
157.51
138.85
127.55
123.05
121.42
116.66
102.94
77.35
40.57
-2.61
-44.20
-75.33
-89.17
-83.33
-61.19
-30.90
-3.12
12.14
9.05
-12.13
-45.17
-80.37
-108.27
-123.32
-125.33
-118.47
-108.36
-98.59
-89.12
-76.79
-57.84
-30.01
6.36
48.66
92.96
134.71
169.30
192.46
201.31
195.53
178.23
154.93
132.16
114.82
104.33
98.87
94.08
85.37
68.61
41.03
2.04
-45.88
-96.73
-141.86
-172.27
-182.82
-174.76
-155.96
-137.47
-127.83
-129.01
-135.51
-137.99
-129.31
-108.74
-81.96
-57.19
-39.88
-29.60
-20.64
-5.84
19.00
52.56
88.33
117.72
133.75
133.61
119.38
96.63
71.93
50.57
35.15
25.49
19.56
14.72
8.46
-1.35
-16.91
-40.12
-71.54
-109.12
-147.34
-178.67
-195.91
-194.53
-174.93
-142.40
-105.08
-71.15
-46.29
-32.22
-26.82
-25.38
-22.40
-13.67
3.01
27.82
59.38
95.12
131.30
162.91
184.28
190.99
181.88
160.48
134.31
112.00
99.63
98.19
103.59
109.19
109.34
101.88
88.54
73.19
59.51
49.42
42.76
37.80
32.19
23.67
9.82
-11.74
-42.76
-83.29
-130.22
-177.30
-216.35
-239.87
-243.56
-227.55
-195.72
-154.04
-108.83
-65.90
-30.34
-6.47
3.12
-0.83
-13.12
-25.00
-27.11
-13.53
15.47
53.33
89.89
114.99
121.69
107.72
75.51
31.33
-15.98
-56.75
-82.65
-88.89
-75.56
-47.51
-12.38
22.33
51.72
74.18
90.15
100.32
104.36
101.40
91.21
75.44
57.53
41.35
29.60
22.36
16.69
7.40
-10.97
-41.55
-82.98
-128.99
-170.08
-196.73
-203.00
-188.71
-158.99
-121.56
-83.08
-46.83
-12.78
20.30
52.43
81.33
103.57
116.84
121.72
121.53
120.35
120.63
121.96
121.77
117.10
106.71
91.97
76.20
63.09
55.05
52.46
53.94
57.36
60.92
63.92
66.77
70.51
75.95
83.14
91.38
99.58
107.06
113.87
120.41
126.39
130.19
129.14
120.81
104.55
82.04
56.25
29.52
2.03
-28.03
-62.67
-101.90
-142.63
-179.60
-207.72
-224.32
-229.90
-227.11
-218.78
-206.58
-190.95
-172.18
-151.42
-130.96
-113.38
-100.34
-91.85
-86.18
-80.79
-73.56
-63.62
-51.66
-39.67
-30.10
-25.11
-25.90
-32.27
-42.36
-52.77
-59.14
-57.42
-45.35
-23.68
3.78
31.31
53.49
67.12
72.09
70.70
66.03
60.29
54.22
47.57
40.11
32.47
26.03
22.13
21.24
22.55
24.38
25.06
23.74
20.72
17.23
14.66
13.94
15.08
17.26
19.29
20.15
19.40
17.32
14.73
12.52
11.31
11.15
11.61
12.02
11.81
10.77
9.08
7.14
5.34
3.87
2.69
1.60
0.49
-0.67
-1.78
-2.71
-3.41
-3.93
-4.37
-4.79
-5.18
-5.42
-5.40
-5.03
-4.34
-3.45
-2.55
-1.80
-1.27
-0.98
-0.84
-0.77
-0.73
-0.74
-0.86
-1.16
-1.71
-2.47
-3.37
-4.26
-5.02
-5.56
-5.87
-5.98
-5.95
-5.86
-5.72
-5.57
-5.40
-5.23
-5.09
-4.93
-4.65
-4.11
-3.21
-1.95
-0.54
0.78
1.74
2.25
2.44
2.52
2.71
3.06
3.45
3.71
3.69
3.42
3.04
2.73
2.57
2.53
2.43
2.17
1.69
1.12
0.59
0.26
0.16
0.22
0.34
0.47
0.61
0.79
1.03
1.30
1.49
1.52
1.40
1.21
1.13
1.27
1.65
2.12
2.50
2.63
2.49
2.18
1.86
1.65
1.57
1.53
1.43
1.23
0.96
0.69
0.50
0.43
0.39
0.33
0.17
-0.08
-0.35
-0.52
-0.49
-0.27
0.08
0.39
0.53
0.45
0.18
-0.14
-0.39
-0.48
-0.41
-0.26
-0.13
-0.11
-0.20
-0.38
-0.53
-0.56
-0.37
0.03
0.56
1.07
1.42
1.59
1.62
1.64
1.75
1.97
2.24
2.49
2.64
2.66
2.53
2.26
1.91
1.51
1.17
0.97
0.97
1.16
1.51
1.95
2.43
2.85
3.08
2.97
2.41
1.42
0.19
-1.01
-1.95
-2.61
-3.15
-3.91
-5.14
-6.88
-8.95
-10.95
-12.54
-13.49
-13.79
-13.52
-12.87
-11.93
-10.80
-9.59
-8.40
-7.39
-6.68
-6.30
-6.18
-6.16
-6.04
-5.64
-4.89
-3.82
-2.51
-1.03
0.59
2.35
4.23
6.17
8.03
9.68
10.98
11.90
12.41
12.56
12.36
11.85
11.09
10.19
9.28
8.44
7.68
6.95
6.16
5.32
4.52
3.89
3.52
3.41
3.42
3.36
3.03
2.36
1.40
0.29
-0.73
-1.48
-1.91
-2.07
-2.20
-2.62
-3.63
-5.44
-7.98
-10.90
-13.65
-15.64
-16.54
-16.48
-16.10
-16.28
-17.73
-20.55
-24.05
-26.97
-27.99
-26.43
-22.62
-18.02
-14.80
-15.27
-21.15
-32.95
-49.56
-68.16
-84.57
-94.11
-92.95
-79.38
-54.57
-22.41
11.68
42.50
66.57
82.80
92.25
97.24
100.09
102.20
103.72
103.67
100.59
93.26
81.34
65.53
47.25
28.22
9.92
-6.61
-20.61
-31.39
-38.23
-40.67
-38.86
-33.85
-27.35
-21.18
-16.54
-13.70
-12.07
-10.75
-8.98
-6.54
-3.73
-1.15
0.67
1.46
1.36
0.79
0.29
0.27
0.93
2.15
3.58
4.81
5.49
5.49
4.89
3.94
2.94
2.14
1.66
1.50
1.56
1.72
1.88
1.97
1.97
1.89
1.77
1.67
1.63
1.67
1.73
1.73
1.61
1.38
1.10
0.91
0.85
0.96
1.16
1.38
1.57
1.71
1.84
1.94
2.00
2.02
1.96
1.84
1.68
1.49
1.29
1.08
0.89
0.76
0.68
0.66
0.67
0.63
0.49
0.21
-0.20
-0.70
-1.22
-1.70
-2.09
-2.39
-2.62
-2.77
-2.87
-2.89
-2.85
-2.76
-2.69
-2.64
-2.60
-2.54
-2.36
-2.07
-1.71
-1.40
-1.21
-1.17
-1.23
-1.28
-1.27
-1.18
-1.07
-1.00
-0.95
-0.90
-0.77
-0.56
-0.31
-0.12
-0.09
-0.20
-0.37
-0.50
-0.53
-0.46
-0.35
-0.26
-0.21
-0.16
-0.05
0.12
0.30
0.40
0.39
0.29
0.21
0.26
0.49
0.85
1.22
1.51
1.67
1.75
1.83
1.98
2.18
2.37
2.46
2.42
2.30
2.19
2.15
2.15
2.12
1.96
1.66
1.33
1.11
1.13
1.42
1.86
2.28
2.54
2.55
2.37
2.11
1.87
1.69
1.56
1.46
1.38
1.38
1.47
1.67
1.96
2.27
2.54
2.72
2.78
2.71
2.49
2.16
1.74
1.28
0.82
0.34
-0.18
-0.71
-1.20
-1.49
-1.48
-1.15
-0.66
-0.28
-0.25
-0.69
-1.50
-2.42
-3.17
-3.65
-3.94
-4.30
-5.00
-6.19
-7.76
-9.38
-10.63
-11.08
-10.52
-9.01
-6.88
-4.62
-2.69
-1.29
-0.30
0.63
1.87
3.61
5.66
7.53
8.68
8.76
7.85
6.50
5.54
5.81
7.79
11.36
15.81
19.95
22.49
22.37
19.11
13.04
5.54
-1.17
-4.41
-2.01
6.78
20.62
36.27
49.72
57.80
59.70
57.31
54.30
54.15
58.25
65.08
70.90
71.74
65.48
52.98
37.65
23.74
14.41
10.68
11.63
15.46
20.34
24.33
24.94
18.98
3.50
-22.36
-56.08
-91.86
-122.75
-143.49
-152.62
-152.50
-147.38
-140.89
-134.38
-127.06
-117.44
-104.93
-90.47
-76.02
-63.36
-53.23
-45.25
-38.37
-31.70
-25.02
-18.84
-14.02
-11.11
-9.93
-9.52
-8.57
-6.00
-1.44
4.66
11.26
17.26
21.83
24.62
25.72
25.51
24.52
23.28
22.30
21.84
21.89
22.00
21.34
19.00
14.39
7.67
-0.05
-6.71
-9.95
-7.78
0.71
14.88
32.50
49.86
62.36
65.61
57.23
37.89
11.99
-13.71
-32.64
-40.94
-38.94
-30.61
-21.59
-16.88
-19.17
-28.39
-42.12
-56.52
-67.02
-69.18
-59.78
-38.00
-6.22
30.21
64.66
91.27
106.73
110.81
105.67
94.57
80.60
66.00
52.16
39.93
29.97
22.84
19.15
18.86
21.16
24.41
26.53
25.77
21.59
15.08
8.62
5.00
6.26
12.85
23.37
34.92
43.60
45.12
35.49
12.02
-25.49
-73.72
-125.48
-170.96
-200.47
-207.68
-192.07
-159.08
-117.76
-77.22
-43.48
-18.24
0.10
14.26
26.05
35.82
43.06
47.66
50.54
53.33
57.40
63.02
69.22
74.50
77.85
79.30
79.73
80.25
81.54
83.54
85.70
87.59
89.40
91.97
96.31
102.82
110.71
118.02
122.37
122.10
117.13
109.12
100.67
94.00
89.81
86.80
82.11
72.37
54.69
27.31
-9.86
-54.71
-102.67
-147.31
-181.63
-200.60
-203.00
-191.91
-173.22
-153.12
-135.33
-120.08
-104.87
-86.75
-64.76
-41.32
-21.84
-12.55
-17.36
-35.47
-60.89
-84.34
-96.94
-93.85
-76.14
-49.57
-21.30
3.72
24.27
41.99
58.83
74.91
88.31
96.78
99.84
99.58
99.99
104.64
114.69
128.29
141.70
151.18
155.11
154.84
154.26
158.22
170.35
191.28
217.93
244.19
262.90
268.37
258.35
234.56
201.66
165.02
128.67
93.95
59.69
23.27
-17.84
-64.68
-115.96
-168.14
-216.19
-254.89
-280.47
-291.67
-290.04
-279.23
-263.46
-246.13
-229.08
-212.69
-196.58
-180.16
-162.83
-143.97
-122.99
-99.69
-74.78
-50.02
-27.82
-10.35
1.23
7.14
8.72
7.73
5.71
3.66
2.15
1.46
1.79
3.12
5.14
7.20
8.59
8.88
8.12
6.79
5.66
5.33
6.00
7.37
8.83
9.71
9.59
8.35
6.20
3.48
0.49
-2.63
-5.85
-9.17
-12.45
-15.42
-17.72
-19.05
-19.30
-18.62
-17.34
-15.86
-14.54
-13.55
-12.89
-12.44
-11.98
-11.31
-10.27
-8.84
-7.10
-5.21
-3.33
-1.62
-0.13
1.17
2.36
3.51
4.62
5.67
6.55
7.18
7.51
7.54
7.35
7.04
6.79
6.76
7.04
7.62
8.29
8.75
8.72
8.05
6.85
5.46
4.28
3.58
3.42
3.66
4.07
4.49
4.91
5.44
6.19
7.19
8.32
9.42
10.30
10.83
10.85
10.15
8.55
5.96
2.58
-1.08
-4.29
-6.33
-6.84
-5.92
-4.06
-1.87
0.18
1.96
3.64
5.48
7.64
10.05
12.40
14.39
15.86
