1478983171.00
64.000000
-0.00
-0.00
-0.00
-0.00
-0.00
-0.00
-0.00
-0.00
-0.00
-0.00
0.00
0.01
0.01
-0.00
-0.03
-0.05
-0.05
0.00
0.13
0.36
0.66
1.01
1.37
1.72
2.06
2.40
2.79
3.24
3.80
4.42
5.06
5.66
6.20
6.68
7.15
7.68
8.31
9.14
10.09
11.04
11.88
12.56
13.13
13.76
14.65
15.97
17.93
20.34
22.95
25.45
27.67
29.70
31.84
34.52
38.05
42.82
48.46
54.45
60.20
65.37
70.00
74.59
79.82
86.22
94.33
103.64
113.35
122.58
130.76
137.91
144.65
152.30
159.55
168.66
180.22
194.35
209.83
223.75
231.76
229.21
212.68
181.30
137.45
85.02
28.39
-29.18
-86.13
-142.23
-197.65
-252.16
-304.93
-354.49
-399.83
-440.17
-474.86
-502.98
-523.20
-533.84
-533.25
-520.38
-494.99
-458.19
-411.93
-358.76
-301.34
-242.12
-183.17
-126.14
-72.36
-22.81
21.64
60.40
93.13
119.75
140.42
155.53
165.71
171.83
175.04
176.54
177.49
178.60
179.97
180.95
180.34
176.79
169.23
157.30
141.24
121.98
100.43
77.30
52.80
26.82
-0.65
-29.26
-58.23
-86.42
-112.26
-133.70
-148.18
-153.24
-147.57
-132.06
-110.20
-87.19
-68.27
-56.65
-52.25
-51.88
-50.81
-44.90
-32.36
-14.36
5.66
23.39
35.18
39.09
34.80
23.71
8.30
-8.70
-25.11
-39.37
-50.60
-58.27
-62.03
-61.75
-57.33
-48.64
-35.53
-17.97
3.79
29.09
56.95
86.45
116.92
148.18
180.53
214.63
251.44
292.17
337.80
386.50
434.37
474.51
497.94
496.15
464.48
404.56
324.40
235.76
150.07
75.24
14.18
-33.96
-71.34
-99.50
-118.91
-129.89
-133.73
-133.12
-131.16
-130.33
-131.42
-133.45
-134.28
-131.91
-125.54
-116.03
-105.57
-96.57
-90.73
-88.27
-87.75
-86.77
-83.06
-75.62
-65.28
-54.43
-46.02
-42.66
-45.14
-52.11
-60.73
-68.00
-71.93
-72.34
-70.83
-69.81
-71.64
-78.04
-89.62
-105.77
-124.42
-141.99
-153.70
-154.76
-142.19
-115.32
-78.94
-40.69
-7.91
15.19
28.29
33.88
35.04
33.88
30.98
26.33
21.06
17.76
20.01
30.89
51.79
81.82
117.69
153.60
182.21
196.48
190.96
165.62
125.93
81.03
40.28
9.84
-8.95
-18.68
-23.24
-25.42
-25.92
-24.34
-20.70
-16.23
-12.95
-12.45
-14.82
-18.56
-21.59
-22.11
-19.87
-16.10
-12.74
-11.32
-12.20
-14.55
-16.78
-17.48
-16.04
-13.02
-10.08
-9.55
-13.79
-24.22
-39.94
-57.25
-70.26
-72.87
-61.64
-37.85
-7.53
20.91
39.76
45.75
40.73
29.98
19.11
11.48
7.28
4.52
1.18
-3.47
-8.42
-11.92
-12.63
-10.40
-6.18
-1.93
0.51
0.33
-2.12
-5.35
-7.38
-6.55
-1.90
7.11
20.66
38.69
60.30
82.78
101.37
110.24
104.80
83.76
51.55
16.32
-13.33
-32.00
-39.19
-38.41
-34.55
-31.12
-28.85
-26.38
-22.35
-16.73
-11.04
-7.44
-7.35
-10.63
-15.68
-20.02
-21.44
-19.25
-14.27
-8.56
-4.49
-3.61
-6.41
-12.57
-21.69
-33.46
-47.16
-60.83
-70.93
-73.21
-64.64
-45.33
-18.86
7.92
28.45
38.95
39.50
33.15
23.91
14.96
7.67
2.33
-1.23
-2.97
-2.87
-1.42
0.28
1.02
0.17
-2.09
-4.57
-5.96
-5.49
-3.46
-0.82
1.15
1.80
1.55
1.75
4.45
11.73
25.07
44.70
68.79
92.95
110.87
116.24
104.77
77.70
41.32
4.59
-24.61
-42.48
-50.13
-51.83
-51.71
-51.55
-50.65
-47.40
-41.37
-34.13
-28.54
-27.18
-31.25
-40.30
-52.72
-65.67
-75.77
-79.37
-73.46
-57.04
-32.15
-3.63
22.43
40.87
49.50
49.63
44.54
37.51
30.46
23.86
17.89
13.23
11.57
14.54
22.59
34.36
47.04
57.69
64.27
66.64
66.53
66.95
71.06
80.71
95.14
110.48
120.51
118.71
100.89
67.21
22.55
-25.09
-67.33
-98.06
-114.81
-118.47
-112.08
-99.38
-83.97
-69.01
-57.08
-49.95
-48.32
-51.69
-58.59
-67.11
-75.39
-81.75
-84.82
-83.47
-76.96
-64.98
-47.68
-25.55
0.50
28.89
57.06
81.52
98.58
105.75
102.95
92.90
80.18
69.39
63.36
62.36
64.63
67.67
69.54
69.30
66.66
61.38
52.82
40.15
22.89
1.21
-24.06
-51.59
-80.20
-108.95
-136.72
-161.91
-182.12
-194.46
-196.06
-184.66
-158.91
-118.59
-64.92
-1.01
67.74
133.89
189.53
228.20
246.63
245.33
227.76
198.90
164.18
128.58
96.35
70.59
52.44
40.69
32.32
23.81
12.72
-0.45
-12.68
-20.05
-20.04
-13.00
-1.43
11.70
24.41
35.66
45.42
53.27
57.93
59.04
56.55
50.76
42.35
32.12
20.51
7.96
-5.93
-21.45
-38.57
-57.34
-78.14
-102.10
-128.46
-157.91
-191.38
-230.31
-274.20
-319.81
-361.45
-392.19
-405.83
-398.92
-372.25
-323.64
-257.60
-182.47
-107.54
-40.29
15.18
57.89
88.70
108.89
120.27
124.07
122.40
117.94
113.09
109.09
105.86
102.43
97.55
90.89
82.43
73.34
65.31
59.59
56.31
54.32
51.84
47.26
40.26
31.43
22.57
15.87
12.83
13.61
17.00
21.36
25.39
29.16
33.69
40.79
52.27
69.46
92.91
122.08
154.86
186.04
208.83
215.99
202.50
168.32
119.18
64.96
16.03
-20.54
-42.97
-53.84
-57.59
-57.75
-55.70
-51.39
-44.82
-37.22
-30.84
-27.72
-28.36
-31.39
-34.34
-34.60
-30.93
-23.94
-15.82
-9.28
-6.44
-7.86
-12.60
-18.90
-24.88
-29.73
-33.88
-38.84
-46.51
-58.38
-74.83
-94.80
-115.80
-134.16
-145.73
-146.65
-134.64
-109.87
-75.26
-35.89
2.40
34.54
57.51
70.28
74.03
71.16
64.04
54.43
43.48
32.14
21.32
11.88
4.39
-1.08
-5.10
-8.64
-12.48
-17.02
-22.00
-26.75
-30.47
-32.57
-32.78
-31.28
-28.49
-24.79
-20.51
-15.78
-10.60
-4.92
1.29
8.00
15.07
22.25
29.18
35.46
40.68
44.54
46.98
48.25
48.93
49.74
51.28
53.83
57.14
60.64
63.68
65.77
66.90
67.51
68.27
69.92
73.15
78.46
85.99
95.09
103.85
109.26
107.97
97.54
77.78
51.12
21.97
-4.92
-26.11
-40.37
-48.47
-52.17
-53.11
-52.19
-49.79
-46.21
-42.15
-38.57
-36.26
-35.40
-35.43
-35.30
-33.96
-30.88
-26.27
-20.90
-15.79
-11.69
-8.80
-6.73
-4.76
-2.22
1.19
5.30
9.61
13.57
16.88
19.59
22.03
24.61
27.56
30.85
34.19
37.30
39.89
41.93
43.63
45.28
47.10
49.06
50.89
52.20
52.91
52.95
52.48
51.80
51.19
50.77
50.47
50.13
49.32
47.64
43.86
36.58
24.98
9.48
-7.93
-24.22
-36.48
-43.43
-45.52
-45.93
-48.69
-57.02
-72.13
-93.21
-118.32
-145.62
-174.49
-202.32
-227.21
-246.79
-258.20
-258.84
-247.47
-224.77
-193.32
-160.85
-131.46
-108.24
-93.64
-90.02
-99.19
-121.23
-153.25
-187.08
-212.85
-220.64
-205.06
-166.64
-111.72
-49.86
9.86
61.81
104.82
140.89
174.07
207.70
244.21
284.23
326.15
365.88
397.14
413.08
408.45
382.28
335.43
273.94
206.52
141.71
85.49
40.25
5.85
-19.01
-35.59
-45.19
-48.93
-48.28
-44.83
-39.78
-34.16
-28.43
-22.80
-17.38
-12.42
-7.91
-3.84
-0.78
1.15
1.10
-1.79
-8.15
-18.07
-30.83
-44.75
-58.01
-69.07
-77.13
-83.24
-89.06
-96.58
-107.89
-124.96
-149.06
-180.14
-215.91
-246.79
-263.26
-257.48
-226.77
-175.54
-114.03
-54.19
-5.13
29.77
52.54
67.09
76.84
82.96
84.77
81.50
73.88
64.44
56.65
53.21
54.32
58.27
62.00
62.87
59.51
52.41
43.65
36.12
32.81
35.73
46.33
65.18
91.12
120.27
145.91
159.00
152.65
125.25
81.94
33.16
-9.55
-38.50
-52.33
-55.45
-54.40
-54.03
-55.67
-58.19
-60.38
-62.64
-65.98
-69.92
-71.07
-64.51
-47.08
-21.04
5.12
20.33
16.97
-4.60
-36.10
-65.96
-85.43
-92.03
-88.81
-80.17
-67.96
-50.76
-26.59
3.42
33.56
55.90
64.63
59.34
45.62
32.39
27.75
35.34
52.85
73.16
87.21
87.11
69.08
35.30
-6.46
-45.56
-71.88
-79.50
-68.06
-41.44
-5.59
33.98
73.11
109.03
139.80
163.66
178.49
182.39
174.93
157.80
134.84
111.01
90.96
78.03
73.97
79.52
92.44
108.47
121.73
125.78
115.56
89.30
48.75
0.93
-44.75
-80.41
-102.12
-110.54
-109.11
-101.49
-89.97
-75.36
-58.10
-39.56
-22.33
-9.03
-1.22
0.72
-1.53
-5.50
-9.19
-11.80
-13.66
-15.90
-19.52
-24.98
-31.82
-38.90
-45.12
-49.90
-53.58
-57.09
-61.87
-69.17
-80.02
-94.82
-113.64
-136.70
-162.54
-190.43
-219.59
-248.62
-274.88
-294.43
-302.21
-293.39
-265.23
-218.49
-157.87
-90.76
-25.20
33.58
81.49
117.01
141.18
156.40
165.11
168.96
168.65
164.54
156.95
146.27
133.55
120.21
107.82
98.20
93.51
95.89
105.66
120.41
134.52
140.62
132.19
106.43
65.36
17.00
-28.03
-60.99
-78.23
-81.77
-76.83
-68.71
-60.52
-53.06
-45.88
-39.18
-34.11
-32.21
-34.15
-39.29
-46.42
-54.35
-63.54
-75.60
-91.66
-110.33
-126.98
-135.40
-130.66
-112.08
-83.95
-53.74
-28.48
-11.82
-3.01
1.66
6.53
15.02
29.10
49.62
76.18
106.32
134.88
154.27
156.78
136.61
95.25
41.90
-9.11
-43.80
-53.51
-37.46
-1.64
44.64
92.74
136.15
171.13
196.07
209.99
211.99
201.71
180.31
150.98
118.62
88.88
66.83
56.16
58.94
72.95
92.77
110.88
119.31
112.19
88.16
50.08
6.28
-33.18
-60.82
-74.24
-76.16
-71.83
-65.58
-58.67
-49.64
-36.32
-18.60
0.75
16.96
26.01
26.19
18.48
5.73
-9.09
-23.90
-37.14
-46.94
-50.61
-45.69
-31.75
-11.93
7.32
18.41
15.50
-2.97
-34.37
-72.89
-113.53
-154.14
-195.75
-240.49
-288.59
-336.74
-377.62
-402.45
-404.48
-381.90
-338.30
-281.52
-220.64
-159.86
-102.61
-50.37
-3.38
38.06
72.83
99.63
117.62
127.28
130.56
129.49
126.16
122.11
118.02
114.28
112.11
113.79
122.20
139.41
164.20
191.65
213.81
222.40
211.24
180.69
137.80
93.43
57.56
35.21
25.73
24.62
26.71
28.72
30.12
31.88
34.84
38.70
41.93
42.73
39.89
32.98
22.76
10.62
-2.05
-14.51
-26.70
-39.44
-53.87
-70.86
-90.85
-114.08
-140.84
-171.49
-205.55
-240.54
-271.49
-291.87
-295.49
-279.16
-244.26
-196.41
-143.20
-91.26
-44.22
-2.21
35.42
69.28
99.13
124.24
144.29
159.55
171.17
180.42
187.49
190.91
188.56
178.41
159.95
134.70
106.00
78.39
56.81
46.00
48.34
63.57
88.04
114.86
135.37
141.90
129.89
101.11
63.23
26.61
0.09
-12.39
-12.51
-5.53
3.16
10.53
16.58
22.99
31.13
40.68
50.09
57.33
60.90
60.25
55.75
47.70
35.87
20.05
1.19
-17.13
-29.43
-30.53
-18.88
1.31
20.93
29.70
20.93
-5.61
-43.62
-83.92
-118.61
-144.20
-161.93
-175.88
-190.56
-207.34
-227.02
-249.32
-272.81
-293.71
-305.94
-303.05
-280.92
-239.82
-184.94
-124.97
-66.62
-15.98
23.81
52.74
72.13
83.03
85.96
81.65
71.86
59.94
49.55
44.07
45.63
55.63
74.50
101.59
134.64
169.18
199.25
218.70
222.97
211.94
190.31
165.54
144.72
131.79
126.79
127.28
130.30
134.09
138.20
142.19
144.81
143.74
136.99
124.16
107.03
88.59
71.99
59.11
49.79
41.80
32.37
19.53
3.04
-15.64
-34.53
-52.26
-67.39
-80.38
-93.20
-107.58
-123.83
-140.46
-154.94
-165.12
-170.28
-171.38
-170.70
-171.50
-176.71
-188.57
-208.74
-237.95
-275.74
-319.45
-363.60
-395.55
-404.02
-382.75
-333.37
-265.03
-190.45
-121.79
-67.23
-30.04
-9.23
-1.35
-0.85
-0.90
4.36
20.85
51.27
93.72
141.79
186.25
217.18
227.15
214.94
188.38
163.27
156.95
179.84
228.98
287.94
334.80
351.93
333.81
288.29
231.90
181.24
145.77
125.52
113.67
101.49
82.63
55.89
24.49
-6.00
-30.68
-46.83
-55.84
-63.32
-77.48
-105.64
-149.76
-204.33
-257.53
-296.21
-311.74
-303.46
-277.89
-244.38
-209.95
-176.50
-141.77
-102.53
-58.23
-11.95
31.05
66.18
91.81
109.94
124.47
138.19
151.52
162.32
166.97
162.13
146.31
120.40
87.58
52.10
18.21
-10.77
-33.00
-47.72
-54.66
-53.06
-41.38
-18.43
14.87
54.25
92.50
120.69
131.98
124.82
103.80
77.46
54.46
40.02
34.89
36.42
40.80
44.99
47.18
46.30
41.32
31.76
17.55
-0.37
-19.84
-38.54
-54.77
-68.33
-80.51
-93.65
-109.91
-130.15
-153.02
-174.80
-190.03
-193.19
-180.78
-152.88
-113.51
-68.98
-25.62
12.87
45.62
75.02
105.03
137.83
173.65
208.00
234.20
246.11
240.78
219.20
186.33
148.60
111.75
79.20
51.58
27.89
6.73
-13.13
-32.97
-54.05
-78.08
-106.61
-140.02
-176.54
-211.67
-239.10
-251.49
-245.40
-222.87
-191.00
-159.14
-134.59
-119.76
-112.84
-107.17
-95.44
-72.51
-36.10
13.10
71.49
133.15
189.35
231.13
252.43
252.13
234.51
207.49
179.11
154.29
134.03
116.74
100.38
84.23
69.34
55.85
43.28
30.50
15.83
-2.75
-27.19
-58.49
-95.27
-133.61
-167.37
-190.09
-195.89
-183.08
-154.23
-114.37
-68.72
-21.61
22.54
57.73
76.56
72.64
44.61
-0.89
-50.19
-87.52
-101.65
-90.46
-60.86
-23.90
9.14
31.44
42.19
44.82
43.67
41.34
38.20
33.54
26.87
18.37
8.95
-0.41
-9.11
-17.12
-24.83
-32.73
-41.19
-50.25
-59.42
-67.74
-73.81
-76.48
-74.47
-66.56
-51.46
-27.74
5.82
49.02
99.01
149.61
191.38
215.16
215.84
194.89
159.90
121.46
88.77
66.63
54.96
50.67
50.44
52.39
56.07
61.19
66.54
70.04
69.71
64.90
56.76
47.27
38.45
31.16
24.74
17.28
6.89
-7.45
-25.07
-43.91
-61.41
-75.61
-86.04
-93.69
-100.43
-107.67
-115.68
-123.26
-128.18
-128.40
-122.99
-112.85
-100.55
-90.02
-85.35
-89.85
-104.29
-125.93
-148.70
-164.81
-167.69
-152.89
-121.96
-79.95
-35.89
1.33
26.37
38.70
41.48
38.36
31.28
20.06
3.99
-16.45
-38.42
-57.46
-69.72
-71.82
-61.78
-39.16
-5.39
36.22
80.10
119.48
147.41
159.21
154.97
139.45
120.22
103.94
94.00
89.76
88.25
86.48
83.11
78.26
72.12
64.66
54.06
38.18
15.45
-14.07
-48.72
-85.29
-120.39
-151.80
-178.36
-199.98
-216.58
-227.73
-232.31
-229.28
-218.62
-200.82
-180.05
-161.34
-149.25
-144.56
-145.10
-147.04
-146.55
-140.84
-128.83
-111.33
-88.83
-61.87
-30.62
4.66
43.79
86.21
131.13
177.26
222.39
265.44
305.77
343.35
378.37
411.08
441.36
468.54
491.06
501.74
495.57
469.76
424.73
363.85
292.73
218.05
146.84
88.17
45.62
20.06
8.76
5.94
4.16
-3.06
-20.20
-46.13
-74.96
-99.33
-112.38
-111.33
-97.90
-76.49
-51.70
-26.67
-2.98
18.48
36.23
49.56
57.67
60.22
57.85
52.08
44.77
37.30
30.34
23.63
16.75
9.01
-0.64
-13.18
-29.38
-48.54
-69.68
-91.39
-112.09
-130.04
-143.95
-153.91
-160.82
-165.87
-170.25
-174.33
-177.35
-177.92
-174.66
-167.22
-157.71
-149.78
-147.72
-156.21
-179.16
-218.69
-274.12
-341.29
-406.91
-456.07
-475.20
-456.90
-403.77
-327.59
-244.05
-166.62
-102.35
-51.15
-8.91
27.59
63.40
101.24
140.86
179.52
212.99
237.07
249.94
251.90
247.41
243.66
246.85
259.31
278.93
300.61
318.93
330.86
335.27
332.29
322.19
304.69
279.48
247.67
211.94
175.74
141.74
109.68
76.80
39.93
-0.28
-38.84
-67.01
-76.65
-65.70
-41.00
-16.87
-9.15
-28.17
-74.74
-140.87
-213.83
-281.32
-334.97
-370.27
-385.70
-382.35
-364.20
-338.17
-312.92
-295.38
-287.65
-286.32
-283.59
-271.07
-243.93
-202.84
-152.96
-101.59
-55.32
-16.06
14.48
35.51
47.20
50.10
45.30
34.82
20.94
6.04
-7.82
-19.33
-28.66
-33.64
-30.81
-16.13
13.15
56.42
108.63
161.15
204.01
229.35
235.69
228.12
215.93
207.69
207.22
212.59
218.09
217.89
209.27
194.64
176.41
155.74
132.00
104.07
72.51
40.44
12.37
-8.00
-20.16
-27.63
-35.35
-46.19
-58.87
-68.73
-71.87
-69.30
-68.14
-78.03
-105.34
-147.98
-195.36
-233.28
-250.70
-244.89
-221.07
-188.23
-153.45
-119.03
-83.28
-43.77
-0.20
45.23
88.83
127.90
161.87
191.90
219.69
245.93
269.70
286.51
291.94
282.95
258.92
221.69
174.84
122.69
69.27
17.93
-28.75
-68.21
-97.76
-114.67
-116.25
-101.23
-71.29
-31.99
8.23
40.71
59.69
64.65
60.93
57.21
60.94
75.08
97.19
121.35
141.73
155.23
162.00
164.11
164.46
163.28
159.14
150.13
135.13
114.63
90.34
64.21
37.93
13.00
-9.00
-25.98
-36.01
-38.88
-36.90
-33.78
-35.06
-45.50
-66.83
-97.26
-132.35
-167.35
-199.52
-228.36
-255.39
-282.98
-312.62
-343.91
-374.22
-398.79
-411.68
-407.69
-383.67
-340.56
-283.40
-219.79
-157.65
-103.10
-59.49
-25.67
-0.62
16.79
26.94
29.88
26.31
17.67
6.12
-5.93
-16.27
-24.75
-29.40
-27.02
-13.69
13.83
55.79
108.09
162.83
210.67
243.20
257.74
257.97
252.14
248.76
252.36
261.81
271.95
276.93
273.16
262.24
246.74
228.66
208.51
185.34
158.11
127.17
94.79
64.23
37.86
15.26
-5.82
-27.25
-47.39
-61.49
-63.94
-52.67
-32.40
-13.82
-8.93
-24.45
-57.96
-99.54
-137.57
-164.50
-179.96
-188.99
-197.35
-208.12
-220.78
-233.19
-244.12
-254.02
-262.58
-267.05
-261.93
-241.42
-203.10
-150.47
-92.19
-36.96
6.11
31.76
39.76
34.00
19.86
1.54
-18.48
-38.67
-57.95
-75.50
-90.17
-100.74
-107.23
-107.78
-99.48
-78.78
-43.17
6.78
65.87
125.36
174.01
203.20
210.94
202.16
186.44
173.41
168.57
171.47
177.41
180.28
175.45
162.17
140.25
110.59
75.56
39.06
6.11
-18.37
-31.35
-32.87
-27.05
-21.41
-23.65
-38.28
-64.34
-95.49
-122.69
-138.06
-138.04
-123.77
-100.75
-75.50
-52.43
-32.24
-12.51
10.23
38.25
71.32
106.60
139.33
164.32
177.27
176.03
161.12
135.37
102.70
66.74
29.92
-6.33
-40.39
-69.29
-88.42
-92.96
-79.92
-49.83
-7.25
40.55
85.83
122.64
146.71
156.46
152.49
136.80
111.87
79.79
42.14
0.51
-43.01
-85.46
-123.14
-152.56
-171.59
-178.73
-172.93
-153.45
-120.53
-76.52
-26.51
22.37
62.45
88.01
98.34
97.98
94.59
95.11
102.56
115.36
129.15
139.45
143.88
143.74
140.18
133.01
120.48
100.45
71.76
35.12
-7.04
-51.37
-94.99
-136.71
-176.66
-215.22
-251.98
-285.41
-311.50
-326.85
-329.72
-320.30
-300.58
-273.50
-242.14
-208.97
-175.53
-142.68
-111.56
-83.82
-61.59
-46.72
-39.51
-38.46
-40.66
-43.08
-43.93
-43.02
-40.48
-35.23
-24.64
-5.87
21.65
55.28
89.69
119.01
139.40
150.66
155.23
155.77
153.44
147.00
135.04
117.60
97.14
78.47
68.10
72.41
95.88
139.22
197.49
261.94
322.01
368.60
393.98
396.23
378.78
348.14
316.57
288.77
263.68
237.95
207.24
171.57
134.41
99.83
69.90
43.56
16.20
-17.04
-59.65
-112.66
-173.94
-238.54
-299.43
-348.76
-379.30
-386.79
-370.11
-332.05
-279.30
-221.02
-166.68
-123.29
-93.38
-74.70
-62.47
-51.82
-40.69
-30.82
-25.98
-28.96
-38.96
-51.24
-59.42
-59.45
-51.62
-39.93
-29.09
-21.05
-13.85
-3.17
14.45
38.99
66.41
90.72
106.89
113.00
110.64
103.51
95.46
88.99
84.85
82.39
80.37
77.59
73.21
66.95
59.04
50.08
40.78
31.74
23.51
16.58
11.31
7.51
3.98
-1.63
-12.44
-31.48
-60.75
-100.43
-148.48
-200.65
-250.86
-292.13
-317.88
-323.64
-308.39
-274.99
-229.46
-179.23
-131.20
-90.14
-58.35
-35.97
-21.65
-12.96
-6.49
2.15
17.93
45.23
86.02
138.29
195.55
248.12
286.08
302.87
297.70
275.49
244.42
212.11
182.49
154.79
125.04
89.15
45.84
-2.11
-48.42
-85.46
-106.72
-108.73
-91.94
-60.45
-20.76
20.18
56.54
84.67
103.24
112.69
114.45
110.36
102.32
92.20
81.64
71.97
63.84
57.30
51.84
46.74
41.42
35.65
29.45
23.02
16.59
10.20
3.47
-4.64
-15.61
-30.87
-50.89
-74.44
-98.50
-118.97
-132.08
-135.76
-130.41
-118.63
-104.06
-90.05
-78.66
-70.38
-64.68
-60.65
-57.60
-55.15
-53.18
-51.49
-49.63
-47.04
-43.23
-38.14
-32.17
-26.10
-20.76
-16.76
-14.20
-12.73
-11.79
-10.85
-9.65
-8.22
-6.78
-5.58
-4.78
-4.40
-4.42
-4.79
-5.53
-6.72
-8.43
-10.67
-13.40
-16.47
-19.68
-22.88
-26.07
-29.46
-33.44
-38.34
-44.23
-50.79
-57.40
-63.45
-68.66
-73.23
-77.75
-82.77
-88.52
-94.79
-101.06
-106.86
-112.10
-117.03
-122.19
-128.04
-134.80
-142.38
-150.43
-158.34
-165.36
-170.68
-173.53
-173.41
-170.10
-163.57
-153.84
-140.72
-123.99
-103.58
-80.02
-54.66
-29.39
-6.15
13.79
30.34
44.63
58.64
74.71
95.01
121.06
153.16
189.96
228.26
263.58
291.47
309.22
317.10
318.38
317.97
320.25
327.22
337.88
349.18
357.76
361.47
359.78
353.09
341.64
324.83
301.55
271.07
233.89
191.78
147.23
102.87
61.39
25.99
0.52
-11.27
-7.38
10.63
37.22
64.37
84.47
93.26
91.00
81.45
69.49
58.72
50.55
44.78
40.84
38.58
38.03
38.56
38.36
34.91
26.06
11.31
-7.89
-28.59
-47.68
-63.28
-75.48
-86.46
-99.86
-119.96
-150.42
-192.72
-244.88
-301.03
-352.34
-389.64
-406.51
-401.52
-378.44
-344.21
-305.92
-268.37
-233.33
-200.70
-170.22
-142.57
-119.14
-100.88
-87.31
-76.52
-66.20
-55.03
-43.19
-32.24
-23.90
-18.82
-15.73
-11.41
-1.11
20.49
57.86
112.91
183.33
262.19
339.16
403.44
447.45
469.32
473.07
466.09
455.24
443.67
429.93
409.55
378.26
334.34
279.57
218.14
154.74
92.76
33.58
-22.99
-77.71
-130.29
-178.94
-220.45
-251.24
-268.67
-272.42
-265.07
-251.73
-239.13
-233.22
-238.74
-257.72
-288.72
-326.47
-362.24
-385.38
-385.96
-358.50
-303.48
-230.14
-154.04
-92.43
-58.03
-53.80
-71.67
-95.76
-109.83
-102.50
-73.01
-29.47
16.37
54.95
82.57
100.85
117.36
129.20
136.87
139.75
139.61
141.43
151.36
172.79
203.29
234.94
257.28
264.14
255.29
236.87
218.28
207.69
208.89
220.18
236.09
249.56
255.74
251.99
238.34
216.76
189.95
160.27
128.79
94.72
55.49
8.02
-50.92
-123.36
-208.70
-302.41
-395.97
-478.74
-541.02
-577.73
-589.83
-584.32
-570.87
-557.58
-547.59
-538.10
-521.98
-490.93
-439.16
-366.00
-277.02
-183.18
-98.35
-35.89
-4.91
-7.10
-35.75
-77.37
-115.98
-137.77
-135.05
-107.62
-61.51
-6.13
49.66
99.77
141.60
175.33
202.39
224.20
241.57
254.94
264.84
271.83
275.70
275.69
270.74
260.68
247.08
233.91
226.45
229.01
242.72
262.89
281.03
288.04
278.10
250.96
211.88
168.99
129.78
99.09
76.33
58.28
41.28
22.79
1.41
-23.85
-54.46
-92.47
-139.07
-196.71
-266.20
-345.89
-431.70
-518.13
-599.64
-671.68
-731.45
-766.90
-769.25
-732.09
-653.44
-537.64
-395.26
-240.73
-88.67
43.21
150.24
230.67
284.19
311.43
314.96
300.35
276.20
253.04
240.26
243.80
261.00
283.48
299.39
298.51
276.21
234.99
182.45
127.43
76.91
32.39
-7.57
-44.89
-79.73
-110.29
-133.50
-147.98
-151.91
-144.32
-126.47
-100.49
-68.43
-31.11
11.66
60.54
115.76
176.58
241.25
307.28
372.53
433.45
486.91
529.19
555.75
562.02
544.91
503.92
441.47
362.16
271.35
174.45
76.14
-19.62
-109.16
-189.43
-258.87
-317.90
-368.54
-413.52
-454.59
-491.78
-522.70
-542.30
-543.17
-517.42
-459.79
-371.34
-261.99
-149.30
-53.44
10.41
38.31
38.80
28.14
22.08
28.57
45.53
64.23
75.85
76.93
70.84
64.76
65.04
73.72
88.01
103.00
114.81
122.69
128.76
136.15
146.75
160.54
176.24
192.84
210.40
229.59
250.35
270.90
288.09
298.58
300.73
295.79
287.46
280.04
276.39
276.77
279.52
282.67
284.41
283.10
277.34
265.48
245.89
217.52
180.08
134.70
83.91
29.47
-29.16
-94.30
-168.77
-253.74
-346.52
-440.08
-523.35
-583.61
-611.82
-606.44
-573.56
-524.76
-472.82
-424.23
-382.39
-352.59
-333.98
-320.32
-304.83
-280.30
-240.58
-183.13
-111.23
-34.52
34.81
87.58
120.57
137.27
145.48
152.60
161.80
171.29
176.18
172.78
161.56
145.83
129.24
113.86
99.27
83.17
63.33
38.75
10.64
-17.91
-43.42
-63.70
-78.15
-87.52
-93.02
-95.30
-93.82
-86.75
-71.55
-46.27
-10.29
35.71
90.23
151.27
215.95
279.82
336.57
378.83
400.02
396.81
370.30
325.62
269.95
209.99
150.18
92.49
37.42
-14.65
-62.49
-104.50
-139.29
-166.09
-184.69
-195.02
-196.87
-190.52
-177.65
-160.56
-141.76
-123.73
-108.79
-99.09
-96.28
-100.86
-111.29
-123.41
-130.99
-127.70
-109.80
-77.78
-36.55
6.68
45.01
74.41
94.19
106.29
113.56
118.12
121.19
124.01
128.81
138.52
155.68
180.45
209.38
235.92
252.34
253.22
238.14
212.15
183.26
159.19
144.34
138.74
139.75
143.36
146.38
147.27
145.50
140.14
129.79
112.85
88.24
56.82
19.59
-22.44
-68.88
-120.53
-179.24
-246.28
-320.88
-399.39
-474.45
-538.50
-585.81
-613.72
-617.91
-597.39
-554.10
-493.01
-429.03
-370.24
-319.28
-273.99
-227.00
-172.28
-107.64
-35.64
36.90
101.09
150.67
182.29
196.59
197.34
189.69
178.53
168.46
163.75
167.90
183.45
208.83
238.34
263.99
278.66
279.26
268.26
252.36
239.36
235.72
243.48
260.19
280.34
297.16
304.29
297.16
274.00
236.37
189.41
140.20
95.91
61.91
40.52
31.09
30.87
36.00
42.23
45.49
41.79
27.61
0.37
-40.73
-94.12
-155.55
-218.59
-276.37
-323.29
-356.18
-373.91
-376.48
-364.04
-337.29
-298.71
-253.88
-211.46
-180.82
-169.01
-177.88
-202.94
-234.57
-260.75
-270.10
-254.37
-210.82
-143.31
-62.78
14.79
73.21
101.93
100.65
79.70
55.65
43.69
52.02
79.36
117.47
156.82
191.26
219.88
245.36
270.61
295.35
316.54
329.95
330.48
316.30
288.89
252.26
211.34
173.12
140.95
116.77
101.96
97.31
102.31
114.19
127.59
136.14
134.75
121.35
97.93
68.78
37.73
6.53
-25.75
-61.46
-102.50
-149.36
-201.34
-256.93
-314.75
-373.77
-432.86
-490.47
-544.72
-593.34
-633.67
-662.42
-675.21
-667.12
-634.11
-574.93
-492.54
-394.29
-290.33
-191.00
-104.31
-34.27
19.13
58.69
88.22
111.12
129.66
145.09
158.12
169.27
179.02
187.76
195.65
202.40
207.68
211.41
214.15
217.10
221.40
227.24
233.14
236.28
233.28
221.72
201.17
173.61
143.24
114.95
92.90
79.31
74.20
75.74
81.44
89.05
97.08
105.36
113.92
122.40
129.65
134.07
134.11
129.28
120.51
109.98
101.51
99.51
108.47
132.07
172.10
227.17
292.23
359.37
416.34
453.41
465.47
453.23
422.24
380.06
333.33
286.18
240.32
196.49
156.50
122.37
95.18
74.18
57.04
41.41
26.23
13.34
3.89
-0.64
-0.14
3.69
7.69
8.52
4.22
-5.01
-17.47
-30.94
-43.43
-54.78
-66.78
-82.66
-105.91
-139.09
-181.12
-228.97
-276.85
-315.85
-336.02
-329.46
-294.34
-236.66
-168.68
-105.56
-60.18
-38.29
-37.30
-49.24
-65.21
-79.83
-91.70
-100.76
-107.40
-111.61
-112.42
-108.94
-101.86
-93.72
-89.24
-92.99
-106.50
-130.54
-166.22
-213.46
-270.31
-332.58
-394.22
-450.02
-495.53
-526.06
-540.01
-539.55
-528.39
-510.80
-491.21
-465.04
-428.88
-393.49
-361.46
-324.09
-274.22
-207.66
-125.27
-33.02
60.27
144.56
212.52
263.09
297.98
319.28
329.60
331.34
327.02
319.69
311.62
304.88
302.20
304.08
308.04
310.17
306.63
294.68
273.85
245.43
213.18
183.16
161.08
150.38
151.92
162.92
177.33
187.68
186.96
171.66
143.44
107.79
71.90
42.69
24.92
20.20
26.89
39.83
52.31
58.17
53.09
35.54
6.82
-29.96
-71.40
-114.82
-159.64
-206.07
-254.09
-302.89
-350.84
-395.73
-435.02
-465.80
-480.81
-474.39
-443.14
-387.48
-312.77
-228.78
-146.96
-76.86
-24.28
13.78
43.25
69.79
96.28
122.11
144.64
161.77
173.03
180.92
189.72
202.20
219.11
239.66
262.22
284.63
303.76
314.92
312.52
292.42
254.16
203.51
151.84
111.89
92.63
96.03
117.11
147.29
178.33
204.51
220.41
222.67
208.91
178.02
131.06
72.04
7.90
-53.13
-103.89
-140.26
-161.49
-170.53
-171.48
-167.37
-159.01
-145.20
-123.82
-92.91
-51.48
0.26
60.14
123.89
184.59
233.82
263.84
269.65
251.01
212.27
160.64
103.25
45.02
-12.09
-68.15
-123.55
-178.62
-233.15
-286.93
-340.11
-392.65
-443.47
-489.77
-527.14
-547.17
-543.14
-511.77
-454.52
-377.20
-288.43
-197.54
-112.70
-39.68
18.93
62.97
94.99
118.71
136.65
149.72
157.56
160.13
159.07
157.91
160.54
169.96
187.08
209.18
232.41
252.60
266.35
271.62
267.99
256.32
238.65
217.71
196.36
176.81
160.31
147.79
140.34
139.24
144.67
154.64
163.16
163.35
149.70
120.66
80.03
36.03
-1.41
-24.04
-29.80
-22.20
-8.70
1.46
0.33
-15.67
-44.03
-76.52
-102.32
-112.36
-102.62
-75.24
-37.24
3.29
40.65
72.60
99.59
121.55
136.09
138.89
125.61
93.62
43.74
-20.14
-92.91
-169.29
-245.50
-318.64
-385.27
-441.04
-482.46
-507.98
-519.09
-520.03
-515.26
-508.68
-501.96
-493.93
-477.40
-446.12
-396.04
-326.66
-246.86
-162.44
-77.73
3.62
78.49
142.55
191.52
223.24
238.48
240.72
236.41
232.36
234.80
248.68
276.80
318.06
366.99
413.89
446.96
456.92
439.24
395.91
334.91
267.50
204.55
154.08
119.87
101.52
96.14
98.43
102.24
102.04
94.45
78.98
58.35
37.39
21.30
14.23
17.27
28.15
40.90
48.40
44.34
25.29
-8.27
-52.45
-101.13
-148.23
-188.84
-220.00
-240.50
-250.81
-252.57
-247.89
-239.96
-229.97
-218.03
-203.75
-186.97
-168.13
-148.15
-128.14
-108.68
-89.53
-69.22
-45.55
-15.81
22.65
71.13
128.39
189.70
246.87
289.93
310.32
303.69
271.47
220.11
158.33
94.04
32.21
-25.11
-77.08
-122.12
-157.22
-178.48
-183.02
-171.12
-146.51
-115.45
-84.62
-59.01
-40.69
-28.75
-20.57
-12.72
-3.61
6.02
13.39
15.06
8.17
-7.70
-29.52
-50.81
-63.08
-58.57
-31.98
17.16
83.33
155.63
219.99
262.88
275.31
255.74
210.57
152.45
95.82
52.05
26.38
17.50
20.06
27.84
35.93
41.49
43.15
40.09
31.92
19.23
3.98
-11.37
-24.39
-34.39
-42.93
-52.83
-66.44
-84.51
-105.67
-127.45
-146.52
-158.99
-161.63
-153.01
-134.17
-108.41
-80.24
-53.37
-30.06
-10.23
8.36
29.20
55.96
91.45
136.39
188.19
240.67
285.05
312.76
318.46
302.16
268.80
226.21
181.70
139.40
99.57
59.83
17.61
-28.21
-76.91
-127.26
-178.27
-229.57
-281.03
-331.84
-379.96
-422.14
-454.65
-471.18
-467.11
-440.27
-391.53
-324.80
-246.35
-163.43
-82.99
-10.78
49.51
95.67
127.27
145.47
152.78
152.52
148.21
143.18
137.73
129.83
116.12
94.50
66.38
37.09
14.46
5.73
14.39
38.59
72.33
107.58
136.98
155.44
160.41
150.72
128.37
98.63
69.29
48.55
41.60
48.12
62.04
74.33
77.57
69.68
54.12
37.24
24.26
16.03
9.37
-0.85
-18.78
-45.12
-76.59
-107.99
-134.70
-154.23
-166.19
-172.45
-173.75
-169.24
-157.05
-135.33
-103.38
-61.92
-12.78
42.16
101.53
164.06
227.28
286.78
336.36
369.44
381.25
370.60
340.76
298.37
251.23
205.74
165.63
131.89
103.62
79.13
56.14
32.38
5.59
-26.35
-65.19
-112.28
-168.20
-232.29
-302.23
-374.29
-443.21
-502.71
-546.62
-570.43
-572.71
-555.64
-524.47
-481.90
-431.68
-377.24
-320.88
-263.63
-205.38
-145.16
-81.37
-12.88
58.65
130.16
195.60
247.10
277.27
282.32
263.65
227.96
185.35
145.32
116.79
105.07
110.96
130.82
158.34
187.16
213.29
235.86
255.82
273.48
285.85
287.16
272.13
240.28
197.84
156.09
125.96
113.02
115.52
126.07
136.40
141.65
141.78
137.90
131.02
119.67
100.81
73.28
40.36
10.38
-9.04
-14.11
-6.97
5.11
12.64
7.92
-11.78
-43.18
-78.38
-108.18
-125.23
-126.27
-112.53
-89.11
-62.92
-40.42
-26.10
-21.96
-28.47
-45.50
-72.58
-108.65
-151.41
-196.31
-237.01
-267.03
-282.12
-282.75
-274.35
-264.93
-261.80
-268.93
-285.58
-306.90
-326.02
-336.32
-330.62
-305.70
-262.14
-203.97
-138.18
-73.85
-20.05
15.69
33.70
40.18
45.22
59.75
91.56
142.03
204.32
265.00
308.19
321.41
299.69
248.10
180.33
114.13
65.49
43.88
50.49
79.59
121.85
167.33
208.29
239.90
260.00
268.83
268.31
261.70
252.93
245.39
237.88
227.46
209.82
181.27
140.76
90.11
33.65
-22.86
-73.52
-113.67
-140.28
-152.83
-153.84
-146.48
-133.54
-116.65
-95.54
-68.34
-32.66
13.16
67.63
125.51
178.39
216.88
233.01
223.69
191.80
144.81
91.73
39.32
-9.49
-55.31
-100.78
-148.62
-200.07
-254.59
-310.07
-363.02
-409.59
-445.71
-467.91
-474.47
-466.13
-446.04
-418.95
-389.68
-358.76
-325.40
-287.55
-243.19
-191.94
-135.91
-78.62
-23.42
27.93
74.78
117.37
154.42
183.01
200.31
205.87
202.81
196.60
192.22
190.20
187.87
181.35
169.40
155.93
149.12
157.22
183.26
222.03
261.27
286.53
286.94
259.48
209.52
147.89
86.54
34.79
-2.59
-25.25
-35.94
-38.86
-38.18
-37.19
-37.98
-41.75
-48.99
-59.48
-72.21
-85.24
-95.91
-101.52
-100.05
-90.81
-74.46
-52.29
-25.41
5.56
40.11
76.82
112.64
143.02
162.93
168.48
158.24
133.76
99.12
59.76
21.09
-12.54
-38.46
-55.76
-65.07
-68.14
-67.20
-64.29
-60.82
-57.25
-53.28
-48.10
-41.08
-32.34
-23.18
-15.89
-13.13
-16.88
-27.20
-41.84
-56.36
-65.79
-66.50
-57.36
-39.77
-16.43
10.09
38.10
66.20
92.70
114.68
128.49
131.14
122.12
104.14
82.47
63.20
49.91
44.42
46.48
54.36
65.70
78.10
89.40
97.78
103.36
105.52
103.48
96.33
83.19
63.53
37.44
5.80
-30.00
-67.48
-104.09
-137.32
-165.43
-187.81
-204.98
-218.20
-228.41
-235.51
-237.72
-232.36
-216.81
-190.11
-153.82
-111.94
-69.95
-33.58
-7.49
5.65
5.66
-4.56
-19.41
-31.91
-35.93
-28.78
-12.64
6.23
20.49
25.07
19.86
9.48
0.63
-1.06
6.31
20.62
37.29
51.62
60.60
63.55
61.70
56.85
50.39
42.75
33.61
22.78
10.79
-0.97
-10.65
-17.16
-21.05
-24.25
-29.63
-39.45
-53.62
-69.30
-81.50
-84.67
-74.15
-47.59
-5.53
47.68
104.31
155.31
192.97
213.61
218.87
214.91
207.86
202.89
201.88
202.91
202.76
199.35
193.28
187.28
183.91
183.21
182.19
177.74
165.50
143.78
115.00
85.01
60.19
44.84
39.10
39.37
39.62
33.67
17.86
-8.39
-43.09
-82.25
-120.50
-151.58
-169.80
-172.66
-163.37
-150.71
-146.37
-159.94
-194.10
-242.65
-292.72
-330.06
-345.03
-336.28
-310.03
-276.37
-244.49
-219.34
-200.94
-186.19
-171.55
-155.28
-138.24
-122.64
-110.12
-99.98
-89.00
-72.85
-48.42
-16.10
19.57
51.43
72.34
78.39
70.83
55.99
43.20
41.43
56.10
87.22
129.64
174.97
214.38
241.07
251.57
245.71
225.74
195.36
158.87
120.66
84.66
53.96
30.80
16.60
11.96
16.20
27.44
42.70
59.10
74.04
85.28
90.36
86.85
72.66
46.98
11.17
-30.61
-71.99
-105.99
-126.87
-132.01
-122.96
-105.59
-88.75
-81.34
-89.05
-111.63
-142.54
-171.24
-187.25
-184.15
-161.64
-124.87
-81.78
-40.08
-5.45
18.78
30.82
30.34
18.79
-0.16
-21.05
-38.15
-47.65
-49.04
-44.97
-39.79
-37.70
-41.24
-50.86
-65.40
-82.68
-100.38
-116.42
-129.11
-137.37
-140.55
-138.53
-131.76
-121.10
-107.58
-92.16
-75.46
-57.65
-38.58
-17.92
4.72
29.84
58.00
89.61
124.30
160.38
194.60
222.70
240.81
246.82
241.28
227.13
208.45
188.91
170.69
154.40
139.64
125.93
113.17
101.53
91.09
81.54
72.23
62.61
52.68
43.04
34.78
28.89
25.76
24.91
25.19
25.28
24.28
22.11
19.39
17.00
15.53
14.89
14.43
13.34
11.15
8.01
4.61
1.78
0.17
-0.01
1.00
2.68
4.45
5.81
6.49
6.47
5.91
5.08
4.18
3.29
2.40
1.59
1.13
1.44
2.85
5.27
8.10
10.27
10.75
8.90
4.77
-0.93
-7.14
-12.81
-17.22
-20.12
-21.71
-22.56
-23.34
-24.53
-26.18
-27.85
-28.78
-28.23
-25.83
-21.78
-16.71
-11.44
-6.72
-2.94
-0.22
1.57
2.73
3.63
4.70
6.22
8.33
10.88
13.49
15.75
17.30
18.02
17.91
17.01
15.24
12.34
8.05
2.30
-4.53
-11.55
-17.57
-21.42
-22.45
-20.76
-17.28
-13.32
-10.07
-8.21
-7.77
-8.35
-9.52
-10.97
-12.62
-14.46
-16.43
-18.43
-20.40
-22.39
-24.43
-26.38
-27.89
-28.49
-27.90
-26.29
-24.41
-23.43
-24.62
-28.95
-36.68
-47.17
-58.91
-69.85
-77.91
-81.62
-80.50
-75.10
-66.76
-57.06
-47.46
-39.07
-32.50
-27.71
-23.87
-19.33
-12.06
-0.43
15.93
35.74
56.42
74.96
88.99
97.49
100.72
99.73
95.70
89.44
81.40
71.88
61.31
50.31
39.59
29.76
21.18
13.94
7.96
3.05
-0.96
-4.26
-7.13
-9.96
-13.19
-17.17
-21.85
-26.76
-31.09
-33.98
-34.92
-33.96
-31.67
-28.83
-26.16
-24.06
-22.66
-21.91
-21.62
-21.55
-21.34
-20.54
-18.76
-15.82
-11.83
-7.24
-2.66
1.28
4.15
5.79
6.36
6.32
6.31
6.82
8.02
9.59
10.92
11.40
10.84
9.55
8.16
7.28
7.13
7.46
7.81
7.79
7.35
6.75
6.39
6.54
7.19
8.10
8.92
9.39
9.51
9.56
9.91
10.91
12.58
14.63
16.49
17.67
17.95
17.50
16.79
16.24
15.98
15.78
15.22
13.99
12.11
9.92
7.97
6.65
6.12
6.24
6.62
6.89
6.72
5.97
4.64
2.83
0.74
-1.43
-3.59
-5.80
-8.25
-11.14
-14.49
-17.99
-20.98
-22.64
-22.38
-20.04
-16.09
-11.38
-6.81
-2.92
0.29
3.25
6.47
10.16
14.07
17.63
20.29
21.85
22.61
23.20
24.22
25.98
28.35
30.86
32.93
33.96
33.36
30.53
24.87
16.03
4.12
-9.95
-24.55
-37.70
-47.59
-53.15
-54.33
-51.96
-47.37
-41.90
-36.45
-31.46
-26.96
-22.89
-19.28
-16.28
-14.13
-12.92
-12.51
-12.54
-12.51
-11.94
-10.54
-8.25
-5.33
-2.20
0.68
2.94
4.46
5.33
5.79
6.13
6.65
7.64
9.35
11.94
15.32
19.03
22.30
24.28
24.50
23.04
20.56
18.03
16.26
15.60
15.83
16.43
16.80
16.56
15.60
13.98
11.88
9.56
7.31
5.44
4.04
2.93
1.70
-0.12
-2.71
-5.90
-9.12
-11.74
-13.28
-13.65
-13.11
-12.08
-10.95
-9.97
-9.25
-8.81
-8.54
-8.31
-7.87
-6.94
-5.26
-2.70
0.59
4.13
7.17
8.89
8.70
6.57
3.06
-0.90
-4.39
-6.96
-8.90
-11.03
-14.46
-20.10
-28.41
-39.33
-52.26
-66.15
-79.63
-91.20
-99.51
-103.84
-104.38
-102.16
-98.57
-94.68
-90.72
-85.94
-79.14
-69.29
-56.28
-41.05
-25.32
-10.92
0.98
10.25
17.89
25.55
34.92
47.00
61.69
77.74
93.06
105.43
113.14
115.46
112.65
105.74
96.01
84.77
73.20
62.37
53.21
46.40
42.14
40.02
39.13
38.40
37.05
34.87
32.28
29.88
27.98
26.23
23.57
18.83
11.34
1.46
-9.47
-19.52
-26.89
-30.53
-30.30
-26.91
-21.49
-15.28
-9.38
-4.62
-1.46
0.12
0.64
0.95
1.88
3.96
7.09
10.59
13.47
14.72
13.76
10.61
5.89
0.64
-4.02
-7.33
-9.07
-9.62
-9.73
-10.24
-11.82
-14.77
-19.00
-24.07
-29.21
-33.50
-36.11
-36.53
-34.77
-31.34
-27.00
-22.48
-18.22
-14.34
-10.71
-6.96
-2.61
2.98
10.40
19.93
31.16
42.87
53.20
60.21
62.69
60.64
55.33
48.84
43.15
39.52
38.08
38.08
38.33
37.74
35.44
30.64
22.60
10.81
-4.43
-21.52
-37.66
-49.71
-55.37
-54.20
-47.74
-38.66
-29.48
-21.60
-15.11
-9.43
-4.04
1.09
5.64
9.48
12.92
16.56
20.86
25.68
30.42
34.29
36.92
38.47
39.59
41.07
43.46
46.99
51.70
57.47
64.18
71.62
79.40
86.86
93.05
96.66
96.26
90.50
78.53
60.58
38.29
14.50
-7.50
-24.81
-35.81
-40.47
-40.06
-36.77
-33.40
-32.99
-38.12
-49.69
-65.83
-81.66
-90.79
-88.13
-72.85
-49.27
-25.45
-9.68
-6.99
-17.39
-36.67
-59.02
-79.89
-97.40
-111.55
-122.82
-131.25
-136.74
-140.09
-143.64
-150.47
-163.25
-182.83
-206.85
-230.32
-247.33
-253.16
-245.96
-227.02
-199.85
-169.17
-139.83
-115.16
-96.73
-84.57
-77.87
-75.79
-77.75
-83.23
-89.72
-95.64
-99.74
-101.23
-100.03
-96.76
-92.48
-90.46
-91.13
-93.46
-96.07
-97.34
-96.05
-91.71
-83.96
-73.50
-61.27
-47.41
-31.71
-13.83
6.76
30.31
56.34
83.56
110.13
134.34
155.67
174.38
191.36
208.28
227.28
250.44
279.10
312.88
349.15
383.52
410.17
423.59
421.12
404.11
377.53
348.21
322.24
303.04
291.15
284.28
278.52
270.53
258.29
241.54
221.51
200.56
179.32
159.56
143.01
130.62
122.85
119.34
119.08
120.62
122.20
121.87
118.14
111.77
102.24
89.32
73.26
54.72
34.50
13.23
-8.86
-31.71
-55.56
-81.11
-107.79
-134.45
-159.56
-181.62
-199.67
-213.52
-223.76
-231.63
-238.88
-247.01
-257.39
-271.05
-288.39
-308.57
-329.10
-345.81
-353.95
-349.92
-332.61
-304.25
-269.71
-234.69
-203.49
-177.65
-156.00
-136.01
-115.64
-94.25
-72.60
-51.85
-32.34
-13.25
6.78
28.51
51.27
72.93
90.92
103.53
110.63
113.42
113.52
111.90
108.51
102.65
93.78
82.22
69.11
55.97
43.97
33.58
24.63
16.65
9.29
2.52
-3.46
-8.34
-11.92
-14.17
-15.20
-15.13
-14.18
-12.58
-10.58
-8.42
-6.30
-4.39
-2.80
-1.62
-0.89
-0.53
-0.25
0.33
1.53
3.37
5.42
6.92
7.01
5.12
1.19
-4.27
-10.32
-15.83
-19.72
-21.17
-19.87
-16.11
-10.83
-5.31
-0.81
1.90
2.79
2.48
1.88
1.77
2.52
4.03
6.00
8.18
10.43
12.74
15.01
16.97
18.28
18.56
17.57
15.28
11.86
7.70
3.33
-0.62
-3.56
-5.09
-5.12
-3.93
-2.07
-0.23
0.97
1.19
0.39
-1.17
-3.01
-4.67
-5.75
-6.07
-5.63
-4.72
-3.64
-2.73
-2.16
-1.91
-1.85
-1.81
-1.66
-1.36
-0.98
-0.55
-0.09
0.39
0.87
1.22
1.34
1.23
1.18
1.70
3.18
5.69
8.78
11.71
13.77
14.68
14.60
13.95
13.10
12.16
11.03
9.56
7.88
6.22
4.89
3.96
3.24
2.47
1.50
0.40
-0.59
-1.25
-1.53
-1.55
-1.44
-1.22
-0.85
-0.29
0.29
0.61
0.38
-0.46
-1.65
-2.77
-3.48
-3.80
-4.09
-4.84
-6.38
-8.66
-11.19
-13.27
-14.33
-14.12
-12.84
-10.97
-9.07
-7.61
-6.79
-6.63
-6.96
-7.52
-7.99
-8.03
-7.33
-5.79
-3.64
-1.38
0.36
1.16
1.04
0.40
-0.24
-0.64
-1.00
-1.89
-3.89
-7.26
-11.72
-16.59
-21.09
-24.60
-26.76
-27.59
-27.30
-26.32
-25.18
-24.39
-24.27
-24.89
-26.01
-27.37
-28.85
-30.63
-32.96
-35.98
-39.51
-43.01
-45.81
-47.31
-47.29
-45.87
-43.68
-41.78
-41.58
-44.24
-50.02
-57.60
-64.05
-65.47
-58.24
-40.39
-12.35
23.05
61.38
97.68
127.64
148.31
158.68
159.74
154.04
144.85
135.02
126.11
118.14
110.14
101.15
90.99
80.52
71.10
63.97
59.65
57.92
58.02
58.94
59.62
58.93
55.75
49.15
38.89
25.79
11.84
-0.32
-8.36
-11.37
-10.72
-10.07
-14.49
-28.61
-54.46
-90.07
-129.37
-164.02
-186.44
-192.78
-184.47
-167.42
-149.32
-136.34
-130.66
-130.07
-129.46
-123.24
-107.74
-82.52
-50.66
-17.90
8.92
24.03
24.69
12.35
-7.70
-28.25
-42.74
-47.30
-41.23
-25.98
-3.65
23.82
54.26
84.38
109.52
124.54
125.78
112.76
88.65
59.13
30.39
7.27
-7.81
-14.78
-15.53
-13.08
-10.77
-11.19
-15.43
-22.70
-30.74
-37.11
-40.43
-41.01
-40.23
-39.51
-38.79
-36.48
-30.24
-18.39
-0.95
20.30
42.66
63.95
83.35
101.87
121.26
142.78
166.39
190.72
213.64
232.92
246.71
253.11
250.83
239.02
217.87
189.44
157.81
128.44
106.53
95.46
93.73
97.90
103.24
105.52
102.40
94.10
82.75
71.01
62.64
57.73
54.38
49.91
42.36
31.58
19.29
8.11
-0.32
-5.79
-10.58
-18.10
-31.82
-54.04
-85.45
-125.21
-171.01
-219.32
-264.95
-301.34
-321.27
-319.43
-295.55
-256.01
-212.48
-177.33
-158.16
-154.20
-157.71
-158.77
-151.71
-138.47
-126.89
-125.04
-135.30
-152.09
-164.63
-163.05
-143.66
-110.59
-72.69
-38.11
-10.32
12.23
33.04
53.83
72.34
83.36
82.46
69.26
48.54
28.57
17.11
17.92
29.19
44.87
57.82
63.24
60.47
52.90
46.23
46.22
56.59
77.89
107.19
138.73
165.77
182.80
187.47
181.56
169.23
156.22
147.95
147.69
155.64
169.69
186.68
203.57
217.78
228.49
233.61
230.32
216.32
190.81
155.19
112.75
67.53
23.07
-18.56
-57.23
-94.83
-134.36
-177.99
-224.84
-269.98
-305.27
-322.34
-316.42
-288.55
-245.06
-194.87
-146.20
-104.75
-73.81
-55.75
-52.77
-66.28
-94.81
-132.44
-169.24
-194.46
-200.54
-185.61
-153.39
-110.35
-62.49
-13.51
34.67
79.93
118.63
146.29
159.77
158.88
146.86
129.21
111.15
95.85
83.80
73.80
64.98
58.06
54.17
53.55
54.69
53.97
47.10
30.32
2.29
-34.30
-72.23
-102.84
-119.28
-118.96
-105.27
-85.48
-66.02
-51.87
-46.92
-48.21
-47.97
-39.48
-18.02
12.87
47.80
79.24
100.81
109.82
109.23
105.57
105.86
114.04
128.58
143.55
150.72
144.40
124.39
96.62
69.32
48.89
36.73
29.08
20.19
5.04
-17.47
-45.06
-73.81
-101.03
-126.16
-149.86
-172.09
-190.84
-202.98
-204.72
-194.91
-175.18
-149.06
-120.18
-90.55
-60.90
-29.57
-2.37
17.02
25.62
24.81
21.48
25.73
45.62
82.31
128.70
171.70
199.67
207.27
197.65
179.51
161.60
147.38
133.91
114.85
84.58
42.61
-6.53
-55.07
-95.78
-124.92
-143.30
-154.98
-164.49
-174.92
-186.65
-197.94
-206.02
-208.50
-203.96
-192.47
-175.00
-152.85
-128.53
-105.49
-87.07
-74.82
-67.40
-58.66
-42.55
-19.23
8.05
34.35
52.88
58.87
52.38
38.71
26.15
21.74
27.93
41.60
54.72
57.90
45.48
19.06
-12.82
-38.18
-47.35
-37.23
-12.24
17.75
42.22
54.80
55.15
47.79
38.55
31.25
26.82
24.87
25.40
29.85
39.92
55.12
71.45
82.65
83.71
74.87
62.80
57.54
66.90
91.59
124.19
152.63
165.87
159.19
135.23
101.78
67.10
36.28
9.88
-14.84
-41.50
-72.14
-105.47
-137.02
-160.73
-171.31
-166.84
-150.05
-127.20
-105.30
-89.35
-80.33
-75.73
-71.60
-64.64
-53.01
-35.66
-11.54
20.46
59.99
103.39
143.31
171.36
182.90
180.33
173.32
174.16
191.17
223.24
259.72
285.34
287.99
265.12
223.48
174.82
129.45
91.74
59.69
28.22
-7.02
-46.85
-87.77
-125.13
-155.42
-177.35
-191.91
-201.66
-209.43
-217.62
-227.20
-236.79
-244.32
-247.78
-245.55
-236.38
-219.64
-193.13
-156.98
-118.47
-84.43
-58.19
-39.19
-21.40
4.66
47.03
106.59
174.24
234.17
271.02
275.87
249.82
202.72
147.90
96.42
53.77
19.87
-8.14
-32.82
-55.56
-76.19
-93.13
-103.75
-105.26
-96.00
-76.91
-52.07
-27.54
-9.89
-3.70
-9.85
-25.36
-45.08
-63.78
-77.91
-86.34
-89.24
-86.62
-77.26
-59.22
-31.51
3.42
38.62
65.09
76.08
71.71
60.22
54.60
66.08
98.09
143.67
188.62
218.17
223.61
205.02
169.67
127.13
84.76
45.89
10.50
-22.42
-53.33
-81.99
-107.63
-129.47
-146.46
-156.85
-158.26
-148.90
-128.27
-97.46
-59.12
-16.96
24.28
58.46
78.26
76.61
49.09
-2.94
-71.04
-141.85
-201.17
-238.72
-250.78
-239.83
-211.74
-173.00
-127.55
-76.18
-18.26
45.97
113.55
178.54
233.78
273.45
295.26
300.02
293.00
281.40
271.09
263.81
257.01
246.28
231.24
212.60
193.23
176.32
162.90
150.94
136.17
113.31
79.23
33.34
-22.41
-83.20
-141.90
-190.63
-223.09
-236.57
-232.88
-217.51
-197.33
-178.31
-163.29
-151.91
-142.29
-132.81
-123.09
-113.65
-104.80
-96.31
-88.10
-80.93
-76.93
-78.77
-88.18
-104.43
-123.91
-141.35
-151.57
-151.04
-138.05
-112.23
-74.48
-27.51
23.49
70.99
106.82
125.35
126.36
116.12
105.31
104.28
118.32
145.44
177.55
204.30
217.93
215.69
199.82
175.09
145.98
114.85
82.28
48.46
14.24
-18.31
-47.87
-75.09
-102.59
-133.22
-167.41
-201.18
-227.14
-237.62
-228.24
-200.96
-163.78
-127.85
-101.49
-89.57
-91.36
-101.55
-115.56
-128.08
-134.92
-132.83
-118.32
-90.11
-50.62
-6.24
33.75
60.73
72.13
74.03
79.57
102.80
150.69
218.09
289.42
345.46
372.05
366.08
335.08
291.83
247.80
208.80
174.57
141.71
106.49
66.83
22.98
-22.65
-65.84
-100.85
-122.00
-125.39
-110.32
-79.76
-40.02
0.77
33.59
49.82
42.61
8.71
-49.91
-125.15
-204.01
-271.96
-316.80
-332.37
-319.84
-285.78
-238.96
-186.89
-133.89
-81.79
-32.05
12.70
48.53
72.19
83.53
86.75
88.64
95.35
108.91
125.99
139.71
142.93
132.11
108.89
79.28
51.25
31.57
23.39
25.28
32.23
37.87
36.86
26.84
8.56
-14.98
-40.04
-63.83
-84.51
-100.92
-112.08
-117.38
-117.33
-113.96
-110.75
-111.31
-117.78
-129.85
-144.41
-156.20
-158.69
-145.99
-114.82
-66.38
-7.28
52.42
102.60
137.12
156.42
166.90
177.21
193.49
215.86
238.52
253.19
253.62
238.43
211.27
178.09
144.18
112.36
83.00
55.13
27.60
-0.63
-29.79
-58.76
-84.54
-102.57
-108.45
-100.56
-81.90
-59.58
-42.18
-35.93
-42.23
-57.87
-77.62
-97.35
-115.88
-134.38
-153.98
-173.91
-190.53
-198.47
-192.44
-169.37
-129.86
-78.83
-24.57
23.12
56.07
71.05
71.52
66.89
68.77
85.79
119.30
162.60
203.98
232.13
240.89
230.68
206.99
176.57
144.55
113.61
84.88
59.16
37.16
19.16
4.11
-10.31
-26.66
-46.19
-67.97
-89.41
-107.17
-118.52
-122.32
-119.28
-111.84
-103.92
-99.76
-102.97
-115.26
-135.54
-160.04
-183.27
-199.25
-202.44
-189.02
-157.73
-110.87
-54.97
0.79
47.17
78.55
95.56
104.83
115.60
134.77
163.10
194.73
220.32
231.53
224.79
201.83
168.04
129.48
91.02
55.83
25.68
1.47
-16.74
-29.40
-37.39
-41.75
-43.38
-43.13
-42.21
-42.57
-46.11
-53.91
-65.44
-78.62
-91.21
-102.03
-111.69
-121.91
-134.12
-148.02
-161.15
-169.27
-167.47
-151.67
-120.17
-74.94
-21.72
31.00
74.86
104.50
119.70
125.38
129.08
137.26
152.35
171.84
190.02
201.08
201.48
191.04
172.05
147.46
119.58
90.07
60.19
31.11
4.15
-19.15
-37.23
-49.18
-55.70
-59.66
-65.38
-76.75
-95.08
-117.91
-140.03
-155.69
-161.75
-159.47
-153.76
-150.55
-153.52
-162.77
-175.39
-187.59
-195.50
-195.28
-182.79
-154.16
-107.64
-45.32
26.07
97.35
157.77
199.58
220.74
226.36
223.43
217.09
209.81
201.61
193.11
185.63
180.16
175.38
166.71
147.50
112.89
63.69
7.61
-43.24
-77.73
-90.84
-85.87
-72.15
-59.77
-53.93
-52.61
-49.22
-37.74
-17.40
6.28
24.61
30.43
21.38
0.30
-27.35
-56.90
-86.16
-114.69
-141.67
-164.48
-179.31
-183.65
-178.06
-166.64
-155.43
-149.83
-152.17
-160.70
-170.00
-172.50
-161.18
-131.84
-84.40
-23.47
42.60
104.08
153.04
185.28
203.81
216.54
230.45
248.73
268.94
284.42
288.07
276.23
250.50
216.46
180.00
143.76
106.53
64.86
16.43
-36.83
-87.59
-125.34
-140.63
-129.63
-95.61
-47.13
5.56
54.06
93.12
119.61
130.79
123.97
97.75
54.17
-0.16
-55.54
-102.69
-136.32
-156.65
-168.18
-176.39
-185.07
-195.37
-206.65
-217.97
-228.55
-236.99
-240.73
-235.91
-218.71
-187.42
-143.80
-93.20
-43.00
-0.18
31.01
50.29
60.85
67.30
73.43
80.66
87.89
92.75
93.17
88.10
76.91
58.68
32.03
-3.69
-46.46
-90.79
-128.91
-153.68
-161.80
-155.16
-139.37
-120.54
-102.21
-84.62
-66.33
-46.89
-28.19
-13.69
-5.92
-4.22
-4.50
-1.11
10.38
31.22
59.18
89.50
116.67
135.83
143.74
139.34
124.02
101.63
77.60
57.36
44.52
39.78
41.25
46.21
53.03
62.19
75.62
94.77
118.71
143.61
163.99
174.91
174.12
162.75
144.63
124.41
105.79
90.50
78.57
69.21
61.58
55.23
49.80
44.80
39.55
33.59
27.12
21.12
16.73
14.42
13.45
11.99
8.18
1.29
-7.57
-15.76
-20.32
-19.49
-13.67
-5.49
1.17
2.63
-3.14
-15.93
-33.20
-51.06
-65.60
-74.07
-75.93
-73.18
-69.71
-69.73
-75.81
-87.33
-100.13
-107.50
-102.58
-81.30
-44.76
-0.02
41.38
66.95
67.68
41.77
-4.17
-57.11
-102.09
-127.08
-126.22
-100.56
-56.85
-5.24
43.25
79.07
96.31
94.03
76.87
53.32
32.40
19.99
16.63
18.26
19.30
16.28
9.69
3.03
-0.10
1.39
5.40
8.19
7.01
1.71
-5.29
-10.59
-12.05
-10.07
-7.37
-7.42
-12.35
-21.71
-32.63
-41.16
-44.14
-40.56
-32.06
-21.95
-13.69
-9.36
-8.91
-10.48
-11.49
-10.02
-5.67
0.44
6.46
10.92
13.41
14.63
15.77
17.58
19.93
21.80
21.92
19.51
14.78
8.79
2.93
-1.68
-4.57
-5.99
-6.64
-7.26
-8.26
-9.68
-11.22
-12.45
-13.05
-12.84
-12.04
-11.13
-10.77
-11.54
-13.61
-16.50
-19.04
-19.72
-17.25
-11.19
-2.16
8.33
18.41
26.55
31.97
34.65
35.08
33.86
31.50
28.40
24.90
21.27
17.79
14.53
11.37
7.98
4.01
-0.74
-6.14
-11.72
-16.74
-20.35
-21.90
-21.21
-18.59
-14.89
-11.11
-8.17
-6.63
-6.55
-7.62
-9.35
-11.21
-12.81
-13.92
-14.42
-14.31
-13.65
-12.59
-11.34
-10.11
-9.15
-8.61
-8.60
-9.10
-10.00
-11.09
-12.10
-12.76
-12.82
-12.24
-11.23
-10.39
-10.40
-11.81
-14.72
-18.59
-22.57
-25.84
-28.05
-29.50
-30.90
-32.94
-35.87
-39.30
-42.26
-43.45
-41.45
-35.07
-23.61
-7.54
11.09
28.62
40.44
42.41
32.57
12.48
-12.82
-36.03
-49.99
-49.98
-35.11
-8.20
25.41
59.64
89.15
110.23
120.95
121.04
111.60
94.74
73.22
50.05
27.95
8.93
-5.90
-16.25
-22.43
-25.23
-25.67
-25.04
-24.41
-24.18
-23.67
-21.18
-14.59
-2.54
14.66
34.77
54.32
70.27
81.57
89.88
98.78
111.95
131.13
154.97
179.58
199.89
211.55
212.09
201.42
181.47
155.55
127.40
99.99
74.67
50.62
25.32
-4.25
-39.81
-80.65
-123.52
-163.91
-197.87
-223.48
-241.17
-252.47
-258.84
-261.05
-259.65
-255.90
-251.76
-248.61
-245.52
-238.79
-223.53
-196.68
-159.56
-118.03
-79.85
-50.45
-30.15
-14.29
3.60
27.93
58.67
91.97
122.87
147.50
164.41
173.47
175.00
169.15
157.02
141.71
128.59
123.44
129.18
143.72
159.41
165.98
154.99
123.92
77.64
26.33
-19.09
-51.30
-68.76
-75.01
-75.82
-76.22
-79.04
-85.24
-94.86
-106.92
-118.67
-125.05
-119.75
-98.17
-60.81
-14.94
27.18
53.26
57.02
41.54
18.20
0.95
-0.08
16.79
45.33
75.44
98.73
112.20
118.38
122.09
125.15
126.50
119.27
95.61
51.23
-11.27
-82.95
-152.09
-209.42
-251.74
-281.94
-305.35
-324.22
-335.47
-332.21
-308.62
-264.56
-206.59
-144.71
-86.87
-35.63
11.55
58.43
105.77
149.68
184.22
205.41
214.24
216.21
218.03
224.63
237.39
254.62
272.54
286.28
290.06
277.83
244.72
188.80
112.50
22.20
-73.22
-164.47
-243.11
-302.02
-336.26
-343.97
-327.39
-292.63
-248.13
-202.12
-159.83
-122.14
-86.06
-47.01
-1.69
49.20
100.09
141.86
165.54
166.90
149.33
123.42
102.79
97.98
111.65
138.58
169.76
198.33
222.53
244.30
264.55
279.33
279.74
256.16
204.09
127.69
38.28
-50.55
-128.34
-190.07
-234.73
-262.64
-273.77
-268.74
-250.78
-225.86
-200.59
-178.58
-158.74
-136.85
-109.77
-78.86
-50.63
-33.56
-33.17
-48.37
-71.39
-91.06
-97.35
-85.11
-54.73
-10.96
39.52
90.72
138.73
182.24
221.66
257.85
290.32
316.54
332.65
335.23
323.19
298.29
264.20
224.85
182.67
138.12
90.00
36.94
-21.67
-84.82
-149.90
-212.91
-268.78
-311.93
-337.75
-344.67
-335.50
-316.85
-295.50
-274.79
-252.78
-224.11
-184.36
-134.12
-80.13
-32.95
-2.42
7.46
0.59
-13.35
-23.19
-20.49
-1.73
31.65
74.45
119.45
160.28
193.60
219.40
240.39
259.95
277.63
290.23
295.91
290.58
269.42
231.91
181.61
124.88
68.38
16.71
-28.34
-67.35
-101.82
-131.97
-156.12
-172.24
-179.30
-177.97
-170.64
-160.42
-150.42
-143.10
-138.92
-135.45
-128.67
-114.71
-91.92
-62.45
-31.61
-5.62
11.06
18.18
19.59
20.40
24.01
30.80
39.07
47.35
55.65
64.35
72.41
76.17
69.78
47.86
8.51
-45.52
-107.89
-171.46
-230.21
-279.28
-313.57
-327.61
-317.29
-282.28
-228.25
-165.82
-107.28
-61.93
-32.95
-16.73
-5.08
11.20
38.32
76.51
119.80
158.23
182.61
189.40
183.34
175.76
179.58
203.08
246.09
300.54
354.35
396.56
420.09
421.93
401.39
358.72
295.25
213.89
120.10
21.19
-75.45
-164.13
-241.81
-307.16
-359.27
-396.42
-416.78
-420.13
-409.19
-389.15
-365.30
-339.74
-309.77
-269.83
-215.82
-149.43
-79.34
-17.79
25.70
49.85
62.46
76.18
101.12
139.19
183.37
222.46
247.18
255.18
251.36
243.98
239.54
239.82
242.43
244.00
243.05
240.47
237.45
232.92
222.44
199.93
160.84
104.67
35.55
-39.20
-111.19
-172.80
-218.69
-246.31
-255.78
-249.05
-229.02
-198.66
-160.69
-117.92
-73.57
-31.39
4.51
31.08
48.09
58.21
65.63
74.97
86.90
98.53
105.57
105.03
95.57
78.73
56.96
31.60
2.66
-29.65
-62.18
-88.14
-99.45
-91.16
-64.77
-28.89
4.60
26.27
33.43
30.61
25.91
25.75
31.47
40.02
47.10
51.08
54.33
61.46
75.78
96.40
117.34
129.34
124.07
97.32
50.94
-8.02
-70.31
-128.26
-178.22
-220.66
-257.94
-290.70
-316.41
-330.06
-327.45
-308.26
-276.74
-239.18
-200.04
-159.33
-113.04
-57.41
6.40
69.61
117.88
137.84
124.43
84.51
34.58
-5.83
-22.24
-10.20
24.36
68.96
111.10
143.41
165.36
181.49
198.08
218.28
240.97
262.74
276.82
275.33
253.81
212.75
157.25
94.98
32.93
-24.74
-77.37
-126.54
-173.38
-216.79
-253.91
-282.14
-300.84
-311.20
-314.33
-309.59
-294.87
-268.61
-232.01
-189.96
-149.18
-114.41
-85.64
-58.22
-26.23
13.20
57.84
101.63
138.31
165.00
183.32
197.79
212.99
231.15
251.37
270.27
283.05
284.90
272.29
244.32
203.24
153.78
101.55
51.10
4.81
-37.01
-74.60
-107.42
-134.10
-153.40
-165.09
-170.00
-169.04
-162.76
-151.61
-136.88
-121.10
-107.24
-96.89
-88.51
-77.75
-59.64
-31.85
3.00
38.36
67.11
85.59
95.59
103.35
116.31
139.52
173.24
212.68
249.50
274.19
278.97
260.22
219.12
160.52
91.03
16.24
-60.47
-136.88
-209.90
-273.73
-320.82
-345.10
-345.63
-327.80
-300.75
-272.64
-246.28
-218.37
-182.50
-133.46
-71.05
-0.76
68.07
125.59
164.38
181.37
178.60
162.75
143.61
131.44
133.78
153.10
186.61
227.93
269.27
302.87
321.54
319.03
290.73
235.86
158.64
68.53
-22.63
-104.52
-171.62
-224.26
-266.23
-301.62
-332.00
-356.49
-373.09
-380.62
-379.02
-368.37
-348.00
-316.72
-274.49
-224.33
-172.66
-126.89
-92.06
-67.79
-48.39
-26.10
4.76
44.74
89.57
133.03
170.54
200.93
226.16
250.02
275.77
304.65
334.64
360.55
375.14
371.55
346.19
300.17
239.55
172.44
106.31
45.57
-8.84
-57.69
-101.60
-140.27
-173.41
-201.90
-228.35
-255.21
-282.62
-306.75
-320.35
-316.01
-289.24
-240.51
-174.69
-99.18
-21.76
50.48
111.32
155.97
182.14
191.57
190.75
189.63
198.38
223.59
265.18
315.86
363.27
393.52
395.87
365.96
307.06
228.63
142.93
60.85
-11.07
-71.20
-121.30
-163.53
-198.60
-225.87
-244.71
-255.96
-261.54
-262.70
-258.67
-247.04
-226.43
-198.70
-169.49
-145.70
-131.22
-123.78
-115.31
-96.03
-60.52
-11.59
40.60
83.70
109.62
118.39
117.18
115.54
120.23
132.76
150.31
168.46
183.63
193.59
196.18
187.75
163.30
118.47
52.12
-31.86
-124.67
-214.37
-288.26
-335.16
-348.56
-328.97
-284.50
-228.95
-177.24
-140.21
-121.58
-118.01
-121.93
-125.49
-122.56
-108.77
-80.88
-36.69
22.91
91.77
158.65
211.05
240.94
249.38
246.69
247.18
261.90
292.62
330.53
360.38
367.43
343.84
291.39
219.33
138.82
58.35
-18.48
-91.69
-161.75
-226.75
-281.67
-320.11
-335.51
-325.81
-293.84
-246.59
-192.63
-139.22
-91.02
-49.90
-16.70
8.29
23.63
28.52
24.97
17.67
12.38
13.15
20.12
30.41
40.68
49.67
59.23
71.96
87.44
100.64
103.70
90.56
61.17
22.27
-16.11
-46.30
-65.63
-77.38
-87.83
-102.14
-120.87
-139.92
-153.40
-156.82
-149.04
-132.47
-111.37
-89.52
-69.17
-50.73
-33.05
-14.71
5.32
27.45
51.65
78.45
109.30
145.08
184.58
223.80
256.57
277.10
282.48
273.95
254.67
231.02
209.37
193.42
183.32
176.54
170.01
164.03
157.68
149.73
139.13
125.02
107.48
87.78
67.23
48.25
33.06
22.38
15.82
12.12
8.65
1.70
-12.45
-35.94
-67.73
-103.87
-139.47
-170.55
-195.40
-214.90
-230.81
-243.74
-252.20
-253.29
-244.83
-227.22
-203.05
-175.47
-146.39
-115.74
-82.52
-46.85
-11.34
19.02
38.86
45.16
38.42
22.57
3.60
-12.50
-21.48
-21.58
-13.62
-0.39
14.39
27.09
35.13
37.72
35.81
31.32
25.93
20.00
12.38
1.18
-15.07
-36.18
-60.13
-83.86
-104.47
-120.23
-130.81
-136.68
-138.34
-135.93
-129.35
-118.85
-105.66
-92.13
-81.23
-75.43
-75.56
-79.99
-84.97
-85.98
-79.25
-63.47
-40.00
-12.01
16.97
44.47
68.74
87.91
99.33
100.33
90.08
71.09
48.87
29.57
17.09
11.14
8.33
5.19
1.07
-0.91
4.14
19.29
43.09
69.63
91.12
101.70
99.92
88.77
73.49
59.15
48.63
42.23
38.87
37.35
37.49
40.01
45.38
52.82
59.95
63.73
62.02
54.94
45.08
36.46
32.67
35.15
42.65
51.96
59.46
62.76
61.39
56.64
50.55
44.85
40.31
36.72
33.22
28.70
22.16
12.93
0.90
-13.25
-27.96
-41.19
-50.93
-55.85
-55.75
-51.53
-44.80
-37.35
-30.66
-25.71
-22.94
-22.33
-23.44
-25.50
-27.58
-28.79
-28.57
-26.83
-23.91
-20.51
-17.33
-14.89
-13.38
-12.67
-12.48
-12.44
-12.24
-11.74
-10.98
-10.15
-9.52
-9.27
-9.39
-9.65
-9.69
-9.21
-8.14
-6.76
-5.53
-4.86
-4.91
-5.45
-5.99
-6.07
-5.46
-4.25
-2.77
-1.33
-0.19
0.57
0.99
1.09
0.96
0.64
0.25
-0.14
-0.50
-0.86
-1.31
-1.94
-2.75
-3.69
-4.58
-5.25
-5.57
-5.55
-5.32
-5.16
-5.33
-5.99
-7.08
-8.42
-9.81
-11.21
-12.70
-14.39
-16.23
-17.92
-19.04
-19.32
-18.88
-18.21
-17.84
-18.07
-18.71
-19.28
-19.27
-18.56
-17.55
-17.03
-17.70
-19.77
-22.72
-25.38
-26.45
-25.01
-20.90
-14.70
-7.33
0.35
7.78
14.60
20.34
24.22
25.26
22.73
16.64
7.93
-1.79
-10.78
-17.89
-22.84
-26.18
-28.90
-31.97
-35.93
-40.68
-45.56
-49.38
-50.70
-48.07
-40.45
-27.57
-10.15
10.15
31.12
50.54
66.71
78.73
86.37
89.85
89.60
86.20
80.50
73.69
67.12
61.92
58.55
56.72
55.57
54.18
52.14
49.51
46.79
44.43
42.52
40.73
38.47
35.24
30.93
25.87
20.59
15.72
11.69
8.78
7.14
6.75
7.30
8.03
7.74
5.10
-0.83
-10.13
-21.81
-33.97
-44.41
-51.17
-53.04
-49.88
-42.51
-32.55
-22.07
-13.06
-7.06
-4.81
-6.23
-10.61
-16.89
-23.94
-30.66
-36.16
-39.86
-41.62
-41.72
-40.52
-37.91
-32.97
-24.07
-9.63
10.82
35.75
61.75
84.47
100.12
106.88
105.25
97.48
86.46
74.56
63.00
52.03
41.40
30.89
20.49
10.28
0.22
-9.88
-20.22
-30.69
-40.61
-48.88
-54.24
-55.81
-53.48
-48.15
-41.50
-35.57
-32.06
-31.81
-34.62
-39.43
-44.75
-49.26
-51.98
-52.44
-50.52
-46.39
-40.61
-34.28
-28.89
-25.83
-25.71
-27.93
-30.77
-32.25
-31.19
-27.80
-23.68
-20.86
-20.80
-23.75
-28.93
-35.18
-41.66
-47.90
-53.43
-57.31
-58.12
-54.66
-46.85
-36.02
-24.44
-14.07
-5.59
1.88
9.97
19.88
31.44
43.23
53.49
61.05
65.93
68.86
70.61
71.33
70.56
67.78
62.94
56.66
50.00
43.95
38.98
34.99
31.44
27.76
23.59
18.88
13.85
8.86
4.27
0.38
-2.66
-4.86
-6.35
-7.38
-8.17
-8.87
-9.48
-9.96
-10.25
-10.40
-10.61
-11.17
-12.30
-13.99
-15.90
-17.46
-18.13
-17.52
-15.58
-12.52
-8.70
-4.49
-0.26
3.55
6.51
8.20
8.40
7.15
4.85
2.17
-0.23
-1.88
-2.71
-2.97
-3.15
-3.69
-4.79
-6.34
-7.93
-9.14
-9.74
-9.80
-9.61
-9.39
-9.12
-8.57
-7.50
-6.03
-4.92
-5.24
-7.89
-12.98
-19.60
-26.20
-31.37
-34.48
-35.95
-36.86
-38.23
-40.52
-43.63
-47.24
-51.28
-56.07
-61.96
-68.72
-75.28
-79.96
-81.33
-79.01
-74.03
-68.48
-64.49
-63.30
-64.77
-67.63
-70.29
-71.61
-71.39
-70.03
-68.05
-65.42
-61.46
-55.20
-45.94
-33.78
-19.56
-4.62
9.82
23.08
35.20
46.85
58.89
71.95
86.05
100.58
114.29
125.76
133.93
138.48
139.90
139.15
137.16
134.28
130.55
125.49
118.79
110.67
101.85
93.31
85.80
79.71
75.08
72.32
71.53
73.10
77.42
84.80
95.55
110.10
128.95
152.28
179.83
209.21
236.66
257.93
269.83
271.81
266.45
258.79
250.86
244.65
239.85
234.83
227.42
216.08
200.68
182.34
162.54
142.35
125.56
111.94
100.13
88.64
76.30
62.45
46.90
29.83
11.32
-8.35
-29.95
-53.92
-80.76
-111.10
-145.95
-186.79
-235.33
-292.28
-355.56
-419.92
-476.71
-516.54
-532.70
-523.93
-494.97
-454.71
-412.64
-375.49
-346.06
-323.49
-305.34
-289.52
-275.16
-262.29
-251.01
-240.85
-230.85
-220.12
-207.88
-193.77
-177.81
-160.20
-141.26
-121.30
-100.38
-78.66
-56.29
-33.25
-9.48
15.41
42.43
73.48
110.86
156.12
207.98
261.57
309.00
341.94
354.85
347.57
325.56
296.58
269.17
249.30
238.98
236.56
238.54
241.58
243.57
243.48
240.63
235.87
228.88
219.38
207.47
193.69
178.82
163.45
147.82
132.05
116.22
99.90
82.76
64.07
42.58
16.69
-15.23
-54.39
-101.18
-154.77
-213.10
-272.28
-326.96
-371.03
-399.15
-408.38
-399.07
-374.68
-340.40
-301.42
-261.20
-221.06
-180.99
-141.18
-103.14
-69.88
-44.36
-27.45
-16.62
-6.51
8.34
30.50
57.68
83.12
98.56
97.93
80.28
50.42
17.05
-10.65
-26.15
-27.18
-15.68
3.67
24.94
42.52
52.31
52.08
41.55
22.17
-3.11
-30.04
-52.03
-62.20
-55.26
-29.47
12.57
64.27
117.30
163.92
199.05
221.07
231.93
234.77
232.28
225.94
216.03
202.48
185.13
164.09
139.45
110.97
78.63
43.71
9.00
-22.11
-47.49
-67.86
-86.95
-109.30
-137.58
-170.49
-202.98
-228.82
-243.94
-248.32
-245.43
-239.82
-234.38
-229.31
-222.87
-213.25
-199.99
-184.14
-167.32
-150.75
-134.57
-118.09
-100.59
-81.82
-62.34
-43.20
-25.32
-8.90
6.99
24.44
45.85
72.85
105.08
139.82
172.52
198.29
213.64
217.44
211.22
198.04
181.19
163.11
145.17
128.17
113.23
101.62
95.19
95.72
103.81
118.18
135.78
152.55
164.64
169.58
168.41
162.87
154.89
145.81
135.85
124.34
110.34
93.06
71.91
45.85
13.67
-25.18
-69.49
-115.20
-155.77
-184.54
-198.02
-197.84
-190.34
-183.69
-183.73
-191.58
-203.76
-214.78
-220.12
-217.96
-208.52
-192.43
-169.63
-139.87
-104.62
-68.17
-37.03
-17.30
-11.54
-16.78
-25.57
-29.02
-20.16
3.26
38.08
76.95
110.52
130.50
132.24
116.24
88.05
56.79
31.88
19.87
22.21
34.92
51.11
64.07
69.89
68.14
61.01
51.38
41.65
33.51
28.43
28.43
35.75
51.88
76.36
106.17
136.09
160.40
175.90
181.62
178.98
170.71
159.69
147.76
135.43
121.93
105.57
84.86
58.17
24.28
-16.81
-63.03
-110.13
-152.74
-186.42
-209.30
-222.66
-230.09
-235.29
-240.34
-245.05
-247.96
-247.60
-243.55
-236.13
-225.51
-211.18
-191.98
-167.04
-137.02
-104.44
-72.79
-44.93
-21.82
-1.82
18.45
42.70
72.77
107.33
141.77
169.53
184.65
184.17
169.52
145.90
120.42
99.35
86.13
80.71
80.41
81.48
80.76
76.34
67.44
54.22
37.43
18.54
-0.05
-14.81
-21.71
-17.44
-0.99
25.43
57.01
87.43
111.31
125.46
129.08
123.46
111.47
96.53
81.31
67.05
53.82
40.73
26.18
7.95
-16.50
-48.61
-87.53
-129.57
-168.33
-197.20
-211.98
-212.63
-201.29
-183.58
-165.55
-150.89
-142.32
-137.97
-135.18
-132.39
-127.90
-120.75
-109.67
-92.66
-67.92
-35.36
2.87
42.17
76.73
101.61
113.72
112.51
100.20
81.10
60.14
41.91
29.14
22.41
20.89
22.96
27.11
32.89
40.85
51.69
65.75
82.12
98.65
112.91
122.74
126.76
124.66
117.26
106.03
93.31
81.87
73.59
70.19
72.46
79.49
88.64
97.66
103.82
105.58
102.83
96.67
87.76
76.45
62.37
44.55
21.96
-6.64
-41.81
-82.83
-126.99
-169.01
-201.79
-218.46
-215.39
-194.49
-163.55
-133.35
-113.33
-107.87
-114.94
-128.10
-140.31
-147.36
-148.81
-146.72
-142.93
-137.29
-127.92
-112.87
-92.02
-67.74
-44.20
-25.03
-11.55
-2.27
6.28
17.81
35.17
59.18
88.61
120.10
149.15
170.84
181.17
178.51
164.46
143.80
122.65
106.21
96.41
92.05
89.89
86.95
82.50
78.34
77.64
82.85
94.34
109.04
123.24
134.11
140.87
144.89
148.41
152.99
158.27
163.89
166.92
164.55
155.17
139.12
118.51
95.84
73.08
50.43
27.26
2.41
-24.56
-53.53
-84.62
-119.12
-159.35
-206.88
-260.27
-313.92
-359.41
-388.45
-396.66
-385.45
-361.16
-331.79
-303.30
-277.74
-253.81
-229.23
-202.68
-174.67
-146.65
-119.90
-94.86
-70.99
-47.57
-24.49
-2.47
17.18
33.18
45.40
55.02
64.47
76.45
92.84
113.63
136.97
159.85
179.21
193.37
201.96
205.31
203.69
196.99
185.21
169.41
152.27
136.57
125.86
122.69
127.15
136.74
147.30
154.76
156.59
153.86
148.03
140.55
132.05
121.96
109.05
92.34
71.47
46.51
17.92
-14.55
-50.76
-89.20
-126.03
-155.74
-173.67
-179.35
-177.36
-175.66
-181.62
-197.40
-218.76
-237.37
-245.40
-239.79
-223.37
-202.15
-181.28
-162.45
-143.87
-123.24
-100.52
-78.65
-61.79
-52.42
-49.14
-47.23
-41.23
-27.73
-7.41
15.54
35.74
49.21
55.17
56.07
56.25
60.19
71.52
91.82
120.17
152.98
184.49
208.31
219.39
215.70
199.01
174.21
147.50
123.60
106.01
96.49
95.18
100.84
111.35
123.98
135.82
144.06
148.04
147.30
141.67
131.63
118.05
102.22
85.30
68.14
50.57
31.01
7.57
-20.97
-54.20
-90.01
-125.45
-158.61
-189.18
-218.23
-246.58
-273.34
-295.42
-308.78
-310.62
-300.98
-283.08
-261.49
-239.81
-219.10
-197.96
-174.18
-146.60
-116.12
-85.29
-56.88
-32.55
-12.15
5.80
23.11
40.59
57.95
74.27
88.98
102.62
116.66
132.43
149.92
167.55
182.53
192.21
195.00
190.74
180.26
164.72
145.04
122.15
97.58
73.82
53.99
41.62
39.51
48.43
66.60
90.16
114.36
134.97
149.07
156.64
158.32
155.04
147.56
136.47
122.24
105.34
86.41
66.09
44.34
20.26
-7.78
-41.23
-79.90
-121.33
-161.37
-195.89
-222.48
-241.23
-253.98
-262.76
-268.48
-270.80
-268.98
-262.98
-253.78
-242.48
-229.05
-211.70
-187.59
-154.55
-112.88
-66.21
-20.84
15.95
37.89
41.82
29.04
5.40
-20.29
-38.74
-43.16
-31.29
-5.88
26.77
59.49
87.01
107.36
121.45
131.45
139.17
145.30
149.35
150.21
146.96
139.36
128.01
114.22
99.80
86.55
77.08
73.98
78.62
90.34
106.31
122.65
136.55
146.19
150.84
150.53
145.81
137.38
126.21
112.66
97.48
80.77
61.32
37.24
7.26
-27.77
-64.40
-97.91
-124.62
-143.65
-157.43
-170.02
-184.31
-200.13
-214.37
-222.92
-222.74
-213.09
-195.17
-171.31
-144.47
-118.26
-96.73
-83.81
-81.64
-89.30
-102.40
-114.68
-120.45
-116.56
-102.97
-82.20
-57.81
-33.13
-10.97
6.71
18.96
26.04
29.91
34.25
43.63
61.76
89.81
124.95
160.38
187.57
199.28
192.69
170.74
141.25
112.80
93.05
86.11
91.63
106.09
124.62
142.92
157.91
169.11
175.57
175.89
168.93
154.58
134.75
112.44
90.70
70.97
53.54
36.48
16.21
-10.98
-46.99
-89.89
-135.15
-177.33
-212.58
-239.75
-258.19
-268.73
-272.11
-272.66
-271.30
-267.64
-259.53
-246.91
-230.66
-211.61
-190.03
-165.51
-137.85
-107.17
-75.08
-43.96
-16.15
7.35
26.96
43.94
59.44
73.98
88.07
101.93
116.29
132.02
149.81
169.15
187.61
201.62
207.96
205.76
196.40
182.73
167.14
150.73
133.33
114.50
95.02
77.20
64.76
60.20
64.20
74.61
87.32
98.02
103.77
105.19
104.11
102.84
102.62
102.96
101.55
94.87
80.71
58.70
30.17
-3.26
-40.17
-79.10
-117.57
-151.65
-177.02
-191.54
-197.20
-199.90
-206.59
-220.92
-240.55
-257.94
-264.51
-255.74
-233.94
-206.90
-183.27
-167.67
-158.12
-147.92
-130.22
-102.38
-67.58
-33.09
-6.24
9.43
15.70
18.77
25.85
41.53
66.15
96.01
125.44
149.35
164.76
171.11
170.05
164.00
154.93
144.13
132.49
120.73
109.88
101.29
96.26
95.54
98.62
103.73
108.10
110.07
109.77
108.93
109.68
113.19
119.08
126.65
133.83
138.70
140.01
137.01
129.51
117.77
101.95
83.15
62.80
41.36
18.07
-8.70
-40.32
-76.58
-115.46
-154.19
-190.75
-224.82
-257.41
-288.92
-317.57
-339.44
-350.17
-347.31
-331.88
-307.78
-279.72
-250.82
-221.37
-189.73
-154.62
-116.96
-80.25
-49.09
-26.66
-13.28
-6.15
-0.67
7.37
19.91
36.28
54.10
71.05
86.36
101.06
116.90
134.88
154.22
172.61
187.31
196.42
199.29
196.51
189.51
179.90
169.17
158.47
149.27
142.11
137.80
136.71
138.28
141.12
143.29
144.71
144.82
143.18
139.30
132.80
123.26
109.68
92.09
71.05
46.80
18.66
-14.02
-50.68
-88.63
-123.73
-152.69
-174.79
-192.70
-210.74
-231.95
-255.57
-276.93
-289.89
-290.35
-278.24
-256.77
-229.97
-200.30
-168.17
-133.42
-97.20
-62.72
-33.99
-13.31
0.33
10.93
23.57
42.31
68.62
100.99
135.78
167.93
192.03
203.49
199.90
182.11
154.89
125.41
100.62
84.33
75.54
69.58
60.92
46.48
27.27
7.73
-6.79
-12.78
-10.09
-1.64
8.49
17.01
22.50
25.24
25.74
24.28
20.38
13.28
2.31
-12.33
-29.89
-49.76
-71.98
-97.25
-125.42
-154.16
-178.65
-193.28
-194.23
-181.67
-160.28
-136.04
-116.03
-104.88
-104.51
-111.74
-122.02
-130.95
-136.08
-136.45
-131.77
-122.10
-107.35
-87.45
-62.45
-32.96
-0.29
33.66
66.65
96.51
121.45
140.90
155.63
167.60
179.00
191.97
208.27
229.16
254.65
282.78
309.27
327.89
332.32
318.44
286.50
241.37
190.94
142.92
102.15
69.58
43.23
20.34
-0.86
-20.37
-36.87
-49.00
-56.59
-61.32
-66.59
-76.92
-96.61
-128.08
-170.16
-217.50
-261.39
-292.58
-304.60
-296.22
-271.85
-239.21
-205.99
-176.83
-152.08
-128.76
-102.94
-72.32
-38.03
-4.43
22.67
39.03
44.18
41.77
38.11
39.51
50.19
71.22
100.94
135.45
169.22
195.57
208.04
202.47
179.23
143.97
105.92
74.26
54.66
47.68
50.35
59.26
72.60
90.03
110.45
130.05
142.74
143.00
129.21
105.22
78.69
57.44
45.54
41.83
41.30
38.04
28.54
13.03
-5.27
-22.21
-34.73
-41.96
-44.82
-44.93
-43.66
-41.65
-39.04
-36.17
-34.27
-35.70
-43.44
-59.85
-85.22
-116.79
-149.02
-175.24
-190.10
-191.69
-182.23
-167.01
-152.14
-142.22
-139.10
-141.93
-148.15
-154.70
-158.55
-156.85
-146.86
-126.61
-96.16
-58.74
-20.72
10.03
27.29
29.67
21.79
12.70
11.71
23.89
47.39
74.34
94.70
101.11
92.15
72.47
49.97
31.88
21.87
19.65
22.53
27.78
34.38
43.15
55.41
71.25
88.72
104.30
114.36
116.84
112.23
103.29
93.61
85.75
79.97
74.25
65.45
51.17
31.37
8.80
-12.02
-26.73
-33.12
-31.84
-25.81
-18.69
-13.30
-10.78
-10.77
-12.23
-14.20
-16.07
-17.43
-17.89
-17.01
-14.57
-10.89
-6.79
-3.42
-1.76
-2.48
-5.78
-11.49
-19.06
-27.47
-35.37
-41.30
-44.05
-42.99
-38.13
-30.08
-19.67
-7.80
4.80
17.53
29.95
41.72
52.61
62.39
70.82
77.47
81.87
83.64
82.68
79.30
74.06
67.57
60.16
51.87
42.57
32.21
21.02
9.49
-1.87
-12.77
-23.25
-33.48
-43.40
-52.47
-59.78
-64.40
-65.92
-64.72
-61.81
-58.33
-55.08
-52.24
-49.49
-46.44
-42.96
-39.32
-35.97
-33.25
-31.13
-29.19
-26.93
-24.01
-20.45
-16.61
-13.03
-10.14
-8.15
-6.96
-6.29
-5.78
-5.16
-4.27
-3.05
-1.50
0.31
2.21
3.91
5.12
5.58
5.19
4.07
2.51
0.91
-0.34
-0.94
-0.83
-0.16
0.67
1.21
1.06
0.09
-1.56
-3.51
-5.34
-6.71
-7.48
-7.71
-7.56
-7.30
-7.19
-7.44
-8.18
-9.37
-10.81
-12.18
-13.15
-13.57
-13.50
-13.20
-13.01
-13.21
-13.87
-14.86
-15.92
-16.78
-17.25
-17.28
-16.96
-16.38
-15.64
-14.68
-13.36
-11.40
-8.63
-4.94
-0.49
4.43
9.34
13.74
17.22
19.56
20.85
21.38
21.63
22.01
22.80
24.00
25.34
26.39
26.72
25.99
24.11
21.19
17.46
13.25
8.90
4.87
1.63
-0.41
-1.05
-0.38
1.16
2.99
4.61
5.76
6.41
6.69
6.71
6.43
5.81
4.85
3.69
2.56
1.66
1.00
0.27
-0.91
-2.84
-5.47
-8.32
-10.77
-12.23
-12.45
-11.54
-9.87
-7.78
-5.43
-2.90
-0.23
2.38
4.52
5.78
5.97
5.31
4.33
3.60
3.42
3.76
4.28
4.57
4.39
3.71
2.73
1.74
1.02
0.71
0.81
1.17
1.61
1.99
2.26
2.48
2.71
2.94
3.10
3.10
2.92
2.65
2.45
2.39
2.44
2.43
2.18
1.61
0.79
-0.16
-1.13
-2.04
-2.83
-3.43
-3.77
-3.86
-3.81
-3.83
-3.98
-4.13
-3.93
-3.00
-1.11
1.65
4.88
8.03
10.61
12.34
13.11
13.04
12.31
11.19
10.00
9.05
8.59
8.73
9.47
10.60
11.88
13.05
13.87
14.19
13.96
13.19
11.92
10.15
7.89
5.16
2.07
-1.19
-4.42
-7.35
-9.79
-11.52
-12.39
-12.32
-11.37
-9.80
-8.01
-6.42
-5.34
-4.85
-4.88
-5.25
-5.80
-6.43
-7.05
-7.52
-7.70
-7.54
-7.15
-6.75
-6.62
-6.92
-7.63
-8.58
-9.45
-9.93
-9.79
-9.01
-7.77
-6.46
-5.52
-5.24
-5.64
-6.42
-7.14
-7.44
-7.26
-6.79
-6.38
-6.23
-6.28
-6.22
-5.70
-4.59
-3.10
-1.62
-0.63
-0.40
-0.90
-1.82
-2.69
-3.06
-2.72
-1.69
-0.23
1.34
2.77
3.93
4.87
5.62
6.18
6.48
6.43
5.99
5.25
4.32
3.38
2.51
1.74
1.05
0.47
0.04
-0.19
-0.25
-0.21
-0.23
-0.44
-0.90
-1.60
-2.42
-3.07
-3.22
-2.60
-1.21
0.62
2.31
3.27
3.22
2.39
1.32
0.66
0.65
1.15
1.71
1.93
1.76
1.46
1.38
1.71
2.26
2.64
2.44
1.49
-0.11
-2.01
-3.83
-5.26
-6.17
-6.62
-6.73
-6.64
-6.54
-6.57
-6.87
-7.58
-8.80
-10.56
-12.81
-15.39
-18.07
-20.56
-22.62
-24.19
-25.47
-27.01
-29.67
-34.28
-41.25
-50.18
-59.78
-68.26
-73.93
-75.71
-73.24
-66.62
-55.89
-40.86
-21.29
2.54
29.52
57.71
84.89
109.24
129.66
145.61
156.59
161.73
159.90
150.31
133.29
110.59
85.06
59.77
37.06
17.98
2.47
-10.13
-20.38
-28.39
-33.92
-36.66
-36.75
-34.84
-32.01
-29.29
-27.39
-26.48
-26.29
-26.33
-26.11
-25.33
-23.92
-21.97
-19.68
-17.29
-15.05
-13.14
-11.66
-10.58
-9.75
-8.96
-8.07
-7.06
-6.05
-5.20
-4.66
-4.53
-4.86
-5.68
-6.99
-8.68
-10.53
-12.24
-13.46
-14.03
-13.99
-13.58
-13.09
-12.69
-12.35
-11.93
-11.26
-10.38
-9.51
-8.99
-9.03
-9.63
-10.49
-11.11
-11.01
-9.95
-7.99
-5.38
-2.52
0.24
2.71
4.87
6.85
8.73
10.53
12.09
13.19
13.64
13.38
12.60
11.56
10.52
9.63
8.93
8.41
8.05
7.89
7.93
8.05
8.02
7.58
6.56
5.08
3.41
1.93
0.82
0.07
-0.53
-1.26
-2.23
-3.38
-4.52
-5.40
-5.81
-5.63
-4.89
-3.75
-2.46
-1.28
-0.44
-0.00
0.06
-0.14
-0.46
-0.83
-1.22
-1.57
-1.79
-1.75
-1.36
-0.62
0.41
1.63
3.01
4.56
6.25
7.97
9.48
10.58
11.13
11.10
10.58
9.65
8.38
6.88
5.23
3.56
1.94
0.42
-1.05
-2.46
-3.70
-4.58
-4.90
-4.65
-3.99
-3.22
-2.64
-2.34
-2.29
-2.38
-2.57
-2.96
-3.66
-4.69
-5.83
-6.71
-6.93
-6.34
-5.10
-3.62
-2.36
-1.57
-1.22
-1.00
-0.61
0.12
1.12
2.16
3.01
3.57
3.83
3.88
3.71
3.24
2.39
1.18
-0.20
-1.48
-2.43
-2.97
-3.16
-3.13
-2.91
-2.47
-1.75
-0.79
0.14
0.72
0.66
-0.10
-1.32
-2.60
-3.51
-3.84
-3.59
-2.92
-2.01
-0.95
0.25
1.58
2.88
3.83
4.10
3.51
2.15
0.40
-1.25
-2.39
-2.83
-2.64
-2.06
-1.46
-1.08
-1.11
-1.53
-2.17
-2.77
-3.11
-3.09
-2.81
-2.49
-2.26
-2.09
-1.83
-1.27
-0.39
0.62
1.49
1.97
2.09
2.05
2.16
2.58
3.32
4.17
4.90
5.34
5.46
5.31
4.94
4.41
3.75
2.97
2.05
0.99
-0.20
-1.41
-2.42
-2.98
-2.86
-2.06
-0.77
0.56
1.55
1.99
1.96
1.80
1.89
2.41
3.25
4.07
4.52
4.42
3.82
3.02
2.31
1.89
1.72
1.65
1.47
1.10
0.64
0.28
0.20
0.44
0.84
1.17
1.16
0.76
0.11
-0.52
-0.83
-0.69
-0.11
0.74
1.69
2.67
3.59
4.41
4.99
5.16
4.81
3.93
2.74
1.56
0.72
0.38
0.56
1.11
1.79
2.39
2.77
2.87
2.76
2.52
2.25
1.96
1.57
0.93
-0.10
-1.47
-3.01
-4.40
-5.36
-5.80
-5.80
-5.56
-5.22
-4.74
-3.96
-2.72
-1.06
0.73
2.22
2.99
2.88
2.10
1.14
0.55
0.66
1.44
2.43
3.04
2.82
1.74
0.21
-1.11
-1.67
-1.34
-0.40
0.65
1.37
1.62
1.51
1.23
0.86
0.33
-0.45
-1.49
-2.65
-3.74
-4.64
-5.31
-5.73
-5.80
-5.35
-4.22
-2.46
-0.40
1.50
2.83
3.39
3.28
2.67
1.80
0.79
-0.31
-1.43
-2.45
-3.22
-3.63
-3.60
-3.21
-2.57
-1.84
-1.09
-0.41
0.20
0.73
1.09
1.18
0.83
0.01
-1.17
-2.41
-3.34
-3.76
-3.70
-3.45
-3.39
-3.73
-4.41
-5.12
-5.47
-5.20
-4.40
-3.36
-2.50
-2.13
-2.29
-2.80
-3.34
-3.58
-3.35
-2.65
-1.59
-0.28
1.13
2.56
3.82
4.72
5.15
5.12
4.83
4.57
4.56
4.83
5.21
5.41
5.25
4.74
4.03
3.32
2.69
2.11
1.47
0.75
0.03
-0.55
-0.96
-1.24
-1.57
-2.04
-2.57
-3.01
-3.16
-3.00
-2.67
-2.36
-2.17
-2.01
-1.73
-1.22
-0.50
0.22
0.74
0.99
1.01
0.90
0.75
0.54
0.27
-0.03
-0.22
-0.12
0.39
1.27
2.33
3.38
4.16
4.58
4.63
4.45
4.20
4.07
4.13
4.36
4.69
5.05
5.44
5.89
6.47
7.18
7.92
8.57
9.03
9.32
9.54
9.86
10.40
11.20
12.21
13.35
14.51
15.59
16.48
17.08
17.31
17.21
16.97
16.98
17.71
19.55
22.54
26.14
29.11
29.86
26.88
19.36
7.58
-7.03
-22.32
-35.95
-46.03
-51.46
-52.17
-48.98
-43.36
-37.11
-31.89
-28.97
-28.84
-31.15
-34.84
-38.44
-40.49
-40.05
-36.93
-31.61
-25.08
-18.38
-12.29
-7.20
-3.19
-0.26
1.58
2.25
1.91
0.99
0.17
0.11
1.16
3.17
5.63
7.92
9.63
10.63
11.05
11.09
10.87
10.43
9.73
8.79
7.65
6.39
4.99
3.39
1.59
-0.11
-0.94
0.07
3.58
9.33
16.05
21.80
24.91
24.73
21.81
17.30
12.16
6.56
0.11
-7.55
-16.06
-24.27
-30.80
-35.05
-37.64
-40.16
-44.11
-49.66
-55.27
-58.23
-56.10
-48.01
-35.33
-21.16
-8.93
-0.96
2.18
1.45
-1.58
-5.30
-7.91
-7.00
0.60
17.85
45.63
81.07
117.36
145.66
158.49
152.91
131.81
102.57
73.83
51.92
39.00
33.31
31.34
30.05
28.20
26.15
24.64
23.65
22.10
18.53
12.26
4.09
-3.98
-9.70
-11.72
-10.18
-6.55
-2.99
-1.35
-2.56
-6.47
-11.98
-17.52
-21.67
-23.75
-24.06
-23.78
-24.30
-26.65
-30.89
-36.13
-41.04
-44.49
-46.07
-46.09
-45.22
-44.09
-43.00
-41.91
-40.69
-39.29
-37.92
-36.89
-36.40
-36.44
-36.74
-36.85
-36.35
-35.02
-32.96
-30.50
-27.94
-25.40
-22.71
-19.53
-15.58
-10.80
-5.53
-0.28
4.45
8.44
11.76
14.66
17.36
19.84
21.91
23.31
23.94
23.93
23.56
23.12
22.70
22.28
21.77
21.10
20.28
19.34
18.25
16.85
15.02
12.76
10.33
8.22
6.96
6.87
7.87
9.41
10.65
10.77
9.22
5.97
1.52
-3.22
-7.31
-10.04
-11.24
-11.24
-10.73
-10.47
-10.99
-12.43
-14.58
-16.94
-18.96
-20.23
-20.65
-20.54
-20.55
-21.41
-23.47
-26.30
-28.50
-28.04
-23.09
-12.96
1.23
16.60
29.31
35.77
33.77
23.08
5.34
-16.42
-38.44
-56.76
-67.93
-69.60
-61.27
-44.58
-23.06
-1.32
16.34
27.13
30.10
25.83
15.58
0.53
-18.19
-38.82
-58.29
-72.38
-76.80
-69.29
-51.08
-26.91
-3.31
14.08
22.78
24.10
21.65
19.20
18.73
20.12
22.23
24.61
28.26
35.29
47.45
64.66
84.41
102.59
115.10
119.41
115.37
104.94
91.13
76.73
63.49
51.94
41.72
32.21
23.00
13.99
5.28
-3.08
-11.17
-19.13
-26.99
-34.51
-41.23
-46.67
-50.56
-53.06
-54.63
-55.84
-57.12
-58.61
-60.09
-61.18
-61.44
-60.55
-58.39
-55.08
-50.94
-46.34
-41.56
-36.63
-31.43
-25.72
-19.39
-12.45
-4.95
3.05
11.50
20.22
28.68
35.94
40.88
42.69
41.24
37.29
32.23
27.48
24.02
22.02
20.96
19.98
18.35
15.77
12.56
9.43
7.20
6.33
6.67
7.48
7.73
6.57
3.79
-0.01
-3.79
-6.56
-8.11
-9.30
-11.83
-17.47
-27.15
-40.08
-53.77
-64.62
-69.23
-65.77
-54.85
-39.62
-24.74
-15.14
-14.26
-22.80
-38.20
-54.92
-65.76
-63.60
-43.67
-5.56
45.74
100.44
146.30
172.30
172.20
146.49
102.02
49.22
-1.41
-42.44
-70.78
-87.03
-93.64
-93.03
-86.57
-74.77
-58.42
-39.64
-22.17
-10.44
-7.74
-14.39
-26.90
-39.22
-45.55
-42.96
-32.92
-20.39
-11.11
-8.62
-12.94
-21.30
-30.30
-38.03
-44.42
-50.47
-56.74
-62.49
-65.96
-65.54
-60.71
-52.35
-42.05
-30.91
-18.94
-5.33
10.87
30.26
52.83
78.11
105.61
135.22
167.52
203.35
242.72
283.70
322.30
353.58
373.77
382.19
378.29
364.91
346.78
328.05
310.46
293.04
273.61
250.80
225.09
201.58
182.28
166.72
152.47
136.48
116.53
92.29
65.31
37.89
11.60
-12.97
-36.50
-60.90
-88.91
-123.43
-167.15
-222.08
-288.59
-364.10
-442.30
-513.34
-566.39
-593.20
-591.06
-563.66
-519.42
-467.92
-416.70
-369.45
-326.24
-285.30
-244.88
-203.86
-161.50
-117.07
-70.44
-23.44
19.40
51.76
67.98
65.52
46.73
18.20
-11.30
-33.90
-44.94
-43.51
-31.34
-11.15
14.75
45.05
79.03
116.13
155.07
193.11
226.18
249.75
260.40
257.51
243.93
224.05
203.68
188.15
180.38
180.26
185.47
192.95
200.41
207.84
214.93
220.45
222.01
216.91
203.52
182.57
157.28
131.66
109.85
93.85
83.07
74.45
63.33
44.68
14.12
-31.21
-91.69
-164.16
-241.94
-315.61
-375.47
-414.70
-431.69
-430.00
-416.49
-398.08
-378.90
-359.81
-339.31
-315.77
-289.08
-260.96
-233.63
-208.51
-185.39
-162.56
-138.07
-110.73
-80.73
-49.83
-20.68
4.74
25.50
42.20
56.63
71.01
87.49
107.88
133.77
166.07
205.15
249.23
293.60
331.19
354.80
360.03
347.55
323.35
294.24
267.93
249.68
240.55
237.93
237.67
236.42
232.71
228.61
224.54
219.79
212.57
201.09
184.54
163.61
140.34
116.71
94.58
74.38
55.29
35.29
11.80
-17.64
-54.93
-101.49
-158.08
-224.03
-296.47
-369.01
-432.57
-477.82
-498.42
-493.44
-467.83
-430.14
-389.00
-350.23
-315.35
-282.73
-250.00
-216.08
-181.73
-148.69
-118.26
-90.39
-63.91
-37.15
-8.68
22.32
55.78
90.95
126.20
159.04
186.12
203.56
208.12
198.50
176.51
147.12
117.27
93.76
81.09
80.01
87.43
97.78
105.09
105.15
96.50
80.75
61.77
44.97
35.78
37.86
51.90
75.28
102.83
128.66
148.26
159.16
161.19
155.90
145.88
133.56
120.03
105.64
89.91
71.36
47.76
16.70
-23.23
-70.91
-121.69
-167.87
-201.34
-217.61
-218.29
-210.86
-204.89
-207.19
-218.38
-233.18
-243.75
-244.32
-233.92
-215.90
-194.95
-173.84
-152.15
-127.46
-97.98
-64.27
-29.38
2.72
29.32
49.98
66.47
81.95
99.81
122.16
149.13
178.38
205.56
225.52
233.88
228.51
210.63
184.23
154.65
126.78
103.72
86.44
74.06
64.65
56.17
47.12
37.02
26.41
16.70
9.67
7.51
11.94
23.37
40.80
61.99
84.22
105.50
124.16
138.55
147.16
148.80
143.23
131.41
115.03
96.75
79.02
62.86
47.14
29.26
6.38
-23.13
-58.88
-98.90
-140.54
-181.66
-220.75
-256.38
-286.55
-308.79
-321.09
-322.84
-315.44
-301.58
-284.13
-265.06
-245.11
-224.22
-202.42
-180.05
-157.56
-134.72
-110.21
-81.93
-47.84
-7.04
39.37
87.72
132.08
165.42
181.74
178.44
158.04
128.02
98.47
78.51
73.16
81.81
99.24
118.37
133.18
140.51
140.18
133.63
122.41
107.58
89.83
70.44
51.46
36.40
29.19
32.83
47.79
71.46
98.80
123.70
140.96
148.98
148.10
140.11
127.21
111.32
93.53
74.54
54.62
33.97
12.05
-12.25
-40.62
-74.76
-114.77
-158.02
-198.76
-230.40
-246.02
-243.30
-225.90
-202.00
-180.30
-165.97
-161.09
-161.96
-163.74
-162.62
-156.60
-144.52
-124.36
-95.35
-59.09
-20.32
14.02
36.90
44.30
37.02
20.55
2.94
-8.50
-9.50
0.32
18.32
40.52
63.23
83.75
100.76
114.31
125.68
137.16
151.11
168.51
188.20
206.69
219.02
220.74
209.80
187.40
157.71
126.61
98.43
77.12
65.17
63.26
70.21
83.46
99.35
113.91
125.14
130.85
129.90
122.22
108.84
91.72
73.41
56.24
41.35
29.31
19.05
8.56
-5.04
-24.61
-51.86
-86.73
-127.36
-170.66
-213.02
-251.33
-282.96
-306.06
-319.78
-324.31
-320.75
-310.93
-296.88
-280.14
-261.67
-241.66
-220.03
-196.91
-172.88
-148.85
-125.46
-102.97
-81.15
-59.84
-38.97
-18.82
0.06
17.16
32.17
45.40
57.43
69.15
81.66
96.24
114.36
137.18
164.88
195.97
227.21
253.71
270.45
273.81
262.79
239.26
207.43
172.73
139.41
111.94
93.55
86.03
89.14
100.56
116.46
132.45
144.80
151.33
153.23
151.59
147.36
140.84
131.96
120.59
107.05
92.00
76.22
59.88
41.61
19.88
-6.25
-36.47
-69.53
-104.50
-141.84
-182.99
-228.70
-277.27
-323.58
-360.62
-382.52
-387.27
-377.58
-358.98
-336.63
-312.44
-284.83
-250.46
-207.62
-158.55
-109.20
-67.08
-37.79
-22.73
-18.48
-18.54
-16.34
-8.27
5.39
21.70
37.05
49.44
59.35
68.91
80.46
95.32
113.66
135.22
159.89
186.71
212.84
233.38
242.68
236.90
216.17
185.27
151.25
122.62
105.83
102.98
111.51
126.14
141.70
155.91
167.79
176.59
181.09
179.54
170.47
153.70
130.25
103.51
77.97
57.40
44.06
38.23
38.05
40.28
41.12
36.99
24.72
1.49
-34.74
-83.77
-142.00
-202.42
-256.19
-295.48
-316.04
-318.65
-308.34
-291.94
-275.13
-260.69
-248.66
-237.53
-225.78
-212.60
-197.90
-181.92
-165.00
-147.61
-130.72
-115.84
-104.56
-98.03
-96.41
-98.83
-103.75
-109.34
-113.83
-115.96
-114.89
-109.90
-100.23
-84.87
-62.38
-30.96
11.10
64.34
126.66
192.73
254.77
304.92
338.08
353.75
353.97
343.58
328.27
312.38
297.74
284.29
271.32
258.64
246.49
236.90
228.89
219.72
206.52
187.93
164.84
139.89
116.60
97.47
82.42
69.40
54.94
34.95
5.53
-35.85
-89.22
-151.04
-214.17
-269.24
-307.43
-323.38
-317.37
-295.19
-265.59
-236.78
-213.59
-196.72
-184.05
-173.00
-162.23
-152.15
-144.09
-138.75
-135.48
-132.40
-127.47
-119.55
-108.98
-97.62
-87.79
-81.26
-78.10
-76.50
-73.56
-66.17
-51.85
-28.97
3.17
44.33
92.53
143.71
191.41
227.98
246.92
245.43
225.72
194.28
159.73
129.16
107.82
98.05
99.44
109.84
126.25
145.28
163.24
177.48
185.62
186.61
181.15
171.32
159.73
148.50
138.81
130.22
122.02
113.16
102.60
88.98
70.63
46.27
15.64
-20.39
-60.51
-104.28
-152.43
-205.75
-263.09
-319.90
-368.48
-400.65
-411.30
-400.59
-373.72
-338.21
-300.17
-262.06
-223.01
-181.28
-136.72
-91.78
-50.54
-16.64
8.01
23.52
31.67
34.95
35.81
36.19
37.36
39.93
44.03
49.69
57.31
67.65
81.80
100.21
122.02
144.82
165.10
179.21
184.38
179.37
164.43
140.99
111.03
76.98
41.78
9.12
-16.32
-30.03
-28.88
-12.41
16.67
53.09
90.32
122.36
145.73
159.61
164.88
163.50
157.49
148.58
138.03
126.68
115.14
103.48
91.37
77.28
59.02
34.91
5.40
-26.64
-57.27
-83.91
-107.06
-130.15
-157.25
-189.89
-225.43
-257.83
-280.63
-290.24
-287.36
-275.91
-260.48
-244.00
-226.85
-207.78
-185.38
-159.25
-130.02
-98.81
-67.01
-36.08
-7.44
17.62
38.17
53.95
65.55
74.29
82.33
92.64
108.49
131.93
162.14
194.16
219.52
229.02
216.51
181.80
131.43
76.26
27.08
-9.30
-31.87
-43.96
-50.19
-52.92
-51.92
-45.07
-30.02
-6.32
23.85
56.08
85.40
107.99
122.73
130.09
131.36
127.69
119.76
108.18
93.40
76.19
57.78
38.44
17.14
-8.47
-41.02
-81.58
-127.56
-173.20
-211.25
-233.67
-236.76
-223.29
-200.95
-178.46
-163.78
-157.40
-155.59
-153.87
-149.21
-139.88
-126.18
-108.60
-87.01
-61.01
-30.73
1.62
32.36
57.73
75.53
85.95
91.77
96.86
104.39
115.89
130.62
147.00
164.08
181.70
199.72
217.23
231.69
239.46
237.43
223.93
199.59
166.89
129.04
88.86
48.60
10.29
-23.73
-50.37
-66.77
-70.68
-61.71
-41.88
-15.33
12.90
38.16
57.37
70.63
79.77
86.95
93.36
98.35
99.89
95.67
84.28
65.32
40.02
9.97
-23.02
-56.35
-86.15
-107.93
-118.97
-121.16
-121.41
-128.91
-150.44
-185.89
-227.42
-262.96
-282.27
-281.78
-265.51
-241.55
-216.84
-193.69
-169.70
-140.77
-104.95
-64.34
-24.37
8.70
30.58
40.24
39.65
32.66
23.63
16.16
12.78
14.86
23.02
37.50
58.06
83.65
112.24
140.68
165.18
182.31
189.98
187.83
177.29
160.73
140.51
118.19
94.39
69.33
43.69
19.31
-1.07
-13.77
-15.46
-4.63
17.47
46.77
77.60
104.47
124.65
137.59
144.25
145.91
143.09
135.67
123.18
105.82
84.71
62.26
40.85
21.76
4.94
-10.24
-24.03
-36.26
-47.49
-60.30
-79.30
-109.19
-151.39
-201.81
-251.43
-290.00
-310.57
-312.56
-301.16
-283.82
-266.05
-248.99
-229.80
-204.49
-171.15
-131.61
-91.00
-55.34
-29.35
-14.22
-7.40
-3.88
1.61
11.84
25.91
39.85
49.16
50.93
45.44
35.80
26.14
19.90
18.86
23.83
35.69
55.79
84.39
119.29
155.04
183.71
197.79
193.35
172.18
140.24
107.06
81.81
70.38
73.78
88.53
109.09
129.89
146.79
157.24
161.63
160.18
153.46
142.77
129.50
115.37
101.80
89.43
77.88
65.15
47.53
22.32
-10.02
-45.34
-76.67
-98.13
-108.18
-109.79
-110.26
-116.74
-133.43
-156.41
-177.71
-188.88
-187.40
-177.00
-164.25
-154.28
-147.89
-142.29
-134.23
-123.42
-112.68
-105.29
-101.67
-97.91
-87.98
-67.39
-36.37
-0.48
31.83
53.57
62.35
60.91
54.82
49.03
46.00
45.57
46.59
48.34
51.13
55.29
59.79
61.94
58.16
45.71
24.11
-4.33
-35.37
-64.22
-86.14
-97.50
-95.94
-80.42
-51.95
-14.05
27.61
66.45
97.12
117.12
126.09
125.36
117.34
104.44
88.65
71.39
53.26
34.96
16.84
-1.55
-20.50
-38.96
-53.88
-60.70
-54.97
-35.01
-3.52
32.67
63.25
78.52
73.50
49.77
14.00
-25.26
-61.04
-89.83
-110.45
-122.36
-124.85
-117.65
-101.58
-79.10
-53.46
-27.52
-3.42
18.01
36.73
52.96
66.62
76.97
82.53
81.34
71.59
52.73
26.64
-2.32
-27.98
-44.05
-46.44
-34.80
-12.76
13.41
37.45
55.08
64.62
66.26
60.86
49.13
31.93
11.08
-10.50
-28.14
-36.50
-32.12
-15.04
10.77
38.73
62.37
78.19
85.80
87.06
84.80
81.25
77.34
72.88
66.96
58.12
45.11
26.70
2.52
-26.08
-55.54
-80.60
-96.15
-99.57
-91.22
-76.01
-61.90
-56.11
-61.72
-76.55
-94.95
-111.07
-122.60
-129.35
-132.15
-131.49
-127.00
-117.76
-103.53
-85.20
-63.94
-41.38
-17.95
6.74
33.09
60.73
87.96
111.95
129.66
138.90
138.79
130.14
114.58
93.99
70.69
47.36
27.07
12.68
5.91
6.30
11.78
19.16
25.70
30.32
33.44
36.19
39.36
43.13
46.28
48.09
48.91
50.16
53.96
61.34
71.45
81.78
90.72
96.96
99.82
99.01
94.31
86.35
76.24
65.57
55.33
46.23
38.01
29.63
19.72
7.04
-9.11
-30.29
-59.06
-98.15
-147.65
-202.33
-252.53
-287.36
-304.27
-305.67
-298.11
-286.55
-274.85
-263.38
-249.63
-230.63
-205.26
-175.13
-142.76
-110.43
-79.03
-48.11
-16.25
17.70
53.48
89.19
122.04
149.89
171.53
186.79
195.85
199.24
197.78
192.66
185.47
178.09
172.21
168.37
165.34
160.10
149.18
130.21
102.93
69.53
34.22
1.57
-23.32
-36.14
-34.94
-20.90
2.01
28.06
51.39
68.62
78.21
80.53
77.21
70.30
61.43
51.67
41.88
32.12
22.65
12.79
0.92
-14.60
-34.06
-55.29
-73.49
-83.38
-82.58
-72.82
-61.24
-56.94
-65.33
-84.54
-107.25
-124.97
-133.32
-133.68
-130.99
-129.13
-129.14
-128.28
-122.60
-110.25
-93.18
-76.05
-63.25
-55.81
-50.72
-42.67
-26.54
-0.41
33.27
68.77
99.34
119.57
126.84
121.50
106.25
85.89
65.80
50.59
43.04
43.56
50.35
60.08
68.90
73.24
70.58
59.75
41.19
17.08
-8.97
-31.75
-45.64
-46.36
-32.75
-7.43
23.95
54.70
79.08
94.59
101.20
100.46
94.49
85.19
73.94
61.87
50.15
39.78
30.64
21.38
9.70
-6.28
-26.69
-49.13
-69.79
-85.45
-96.22
-104.95
-116.53
-134.26
-157.05
-179.50
-194.69
-200.62
-197.95
-189.65
-178.83
-167.12
-154.16
-137.58
-116.21
-90.43
-61.65
-30.59
2.58
38.13
75.45
112.60
145.69
169.35
178.35
169.18
142.14
101.65
55.75
14.17
-14.07
-23.21
-12.33
14.99
51.95
90.87
124.57
147.52
156.29
149.78
129.34
98.64
63.58
30.17
4.69
-8.32
-7.25
6.07
27.18
50.53
71.13
85.90
94.77
98.53
98.05
93.65
85.39
73.36
58.37
42.12
27.27
15.15
5.62
-2.72
-11.70
-22.44
-35.23
-50.35
-68.98
-92.84
-123.01
-158.39
-194.20
-223.00
-238.07
-237.00
-222.88
-204.96
-188.75
-175.64
-163.86
-150.72
-135.09
-118.30
-102.50
-89.91
-80.86
-73.19
-64.09
-51.64
-35.61
-17.73
-0.78
12.69
21.60
27.22
32.87
42.24
58.18
82.39
114.67
152.72
192.01
226.56
250.35
258.79
249.95
225.67
191.41
154.62
122.49
99.59
86.61
82.46
84.80
90.91
98.46
105.50
110.10
112.00
110.02
103.97
95.51
87.35
82.07
81.07
83.19
86.50
88.76
87.72
81.65
69.78
52.39
31.34
9.49
-11.06
-30.93
-54.43
-87.90
-135.43
-195.12
-258.15
-311.66
-344.46
-352.35
-339.53
-316.07
-292.39
-274.08
-260.28
-245.79
-225.08
-195.66
-158.89
-118.45
-78.26
-41.23
-8.71
18.69
40.46
56.20
66.25
72.52
78.30
86.92
99.86
115.46
129.24
136.13
132.94
120.30
102.29
84.48
71.04
62.87
57.36
50.06
37.51
19.11
-2.67
-23.68
-40.15
-50.45
-54.50
-53.25
-47.54
-36.90
-19.78
4.82
35.55
68.10
96.17
113.98
119.69
114.80
103.25
89.79
78.23
70.36
66.23
64.65
63.65
61.11
54.81
43.63
28.03
9.85
-8.44
-24.97
-39.27
-52.33
-66.07
-82.14
-100.89
-121.05
-140.50
-157.31
-170.51
-179.90
-185.37
-188.13
-187.52
-182.27
-171.44
-154.89
-133.26
-107.79
-80.25
-52.43
-25.67
-0.69
22.27
43.22
62.37
80.10
97.03
114.13
132.61
153.31
176.14
199.23
219.15
231.92
234.33
225.00
204.56
175.29
140.29
102.94
66.44
33.72
7.41
-11.01
-20.79
-22.29
-16.84
-6.41
7.20
22.45
37.98
52.29
64.89
74.62
79.83
79.43
73.35
63.20
51.84
42.62
38.19
39.10
44.02
49.59
51.12
43.21
21.02
-18.22
-73.74
-140.58
-209.05
-266.88
-303.64
-314.79
-303.91
-280.37
-254.39
-232.63
-216.47
-203.41
-190.24
-177.31
-165.45
-156.17
-150.28
-146.73
-143.20
-136.99
-126.30
-110.82
-91.81
-71.00
-49.87
-29.32
-8.95
12.50
36.31
63.23
93.27
126.17
162.30
202.12
245.37
289.90
330.64
360.21
371.33
359.96
327.48
280.93
230.50
183.77
146.60
121.31
106.67
99.30
95.40
91.86
86.58
78.22
68.07
56.73
44.71
32.73
21.62
11.94
3.16
-6.38
-19.17
-37.86
-62.49
-89.77
-113.78
-128.19
-128.97
-116.97
-98.53
-83.18
-79.23
-89.85
-112.13
-139.30
-164.35
-182.64
-193.95
-199.11
-198.39
-190.79
-174.90
-150.07
-117.16
-78.24
-35.74
8.47
53.29
97.16
137.71
171.61
195.39
206.69
205.21
192.94
173.33
149.91
125.26
100.58
75.85
50.32
22.99
-7.06
-39.94
-74.21
-106.72
-132.12
-144.78
-140.87
-120.22
-86.64
-46.73
-8.38
23.68
47.31
62.01
68.19
67.01
59.89
49.12
36.76
23.43
7.92
-12.02
-37.52
-66.81
-95.09
-116.35
-126.30
-124.31
-113.23
-97.08
-78.70
-58.09
-32.91
-0.74
38.38
80.39
117.63
140.71
141.78
117.72
72.50
17.17
-33.03
-63.77
-67.17
-45.17
-8.52
28.26
53.59
63.70
62.88
59.31
59.17
62.83
65.51
61.35
48.26
30.00
13.99
6.65
9.35
17.69
24.31
23.14
12.41
-5.35
-25.72
-45.34
-63.62
-82.41
-104.42
-131.54
-163.81
-199.01
-232.84
-259.55
-273.14
-269.21
-246.55
-207.93
-159.52
-108.87
-62.68
-25.25
1.71
18.27
25.18
23.48
14.85
2.11
-10.55
-18.09
-15.66
0.09
29.69
69.64
112.19
146.69
162.97
155.53
126.85
87.62
53.08
36.74
44.70
73.68
113.70
153.85
187.58
214.40
237.50
259.25
278.09
288.79
285.90
267.67
237.72
203.59
172.69
148.74
130.51
113.48
93.04
67.24
37.33
6.38
-22.89
-49.63
-74.64
-99.12
-123.06
-144.70
-161.24
-170.24
-170.90
-164.36
-153.19
-140.22
-127.60
-116.37
-106.74
-98.56
-91.71
-86.09
-81.50
-77.54
-73.63
-69.24
-64.07
-58.09
-51.56
-44.95
-38.74
-33.32
-28.87
-25.34
-22.42
-19.68
-16.80
-13.70
-10.61
-7.87
-5.82
-4.52
-3.80
-3.32
-2.80
-2.14
-1.42
-0.81
-0.36
0.01
0.49
1.25
2.29
3.47
4.52
5.22
5.45
5.26
4.81
4.34
3.99
3.79
3.66
3.53
3.44
3.52
4.02
5.08
6.70
8.66
10.58
12.10
12.92
12.98
12.33
11.14
9.64
8.07
6.61
5.39
4.45
3.76
3.35
3.22
3.39
3.77
4.17
4.35
4.11
3.46
2.58
1.83
1.55
1.92
2.88
4.13
5.30
6.01
6.06
5.47
4.48
3.47
2.76
2.52
2.61
2.72
2.54
1.98
1.19
0.52
0.33
0.78
1.85
3.36
5.06
6.75
8.31
9.61
10.52
10.97
11.03
10.90
10.89
11.19
11.79
12.37
12.48
11.69
9.82
7.02
3.71
0.51
-2.03
-3.48
-3.68
-2.74
-0.92
1.42
3.89
6.21
8.11
9.33
9.61
8.75
6.66
3.41
-0.88
-6.14
-12.40
-19.64
-27.59
-35.56
-42.54
-47.49
-49.76
-49.36
-46.91
-43.35
-39.49
-35.83
-32.46
-29.27
-26.12
-22.89
-19.42
-15.50
-10.78
-5.05
1.63
8.80
15.63
21.20
24.71
25.86
24.87
22.42
19.44
16.78
14.94
13.89
13.19
12.14
10.18
7.14
3.30
-0.77
-4.43
-7.34
-9.54
-11.32
-13.10
-15.10
-17.33
-19.57
-21.69
-23.85
-26.59
-30.73
-36.94
-45.36
-55.38
-65.90
-76.02
-85.47
-94.63
-103.72
-111.56
-114.90
-109.08
-90.21
-57.33
-13.52
35.21
82.38
123.20
155.19
176.85
186.19
180.63
158.83
123.42
82.14
45.94
24.49
21.56
33.12
49.41
59.93
58.44
45.29
26.05
7.70
-4.92
-10.97
-12.93
-14.23
-17.02
-21.21
-25.04
-26.58
-25.10
-21.58
-18.02
-16.21
-16.58
-17.93
-18.21
-15.63
-9.84
-2.12
5.13
9.53
9.86
6.55
1.44
-3.14
-5.45
-5.01
-2.67
0.01
1.45
0.83
-1.80
-5.59
-9.42
-12.35
-13.99
-14.49
-14.40
-14.38
-14.90
-16.13
-17.98
-20.22
-22.58
-24.82
-26.76
-28.25
-29.27
-29.92
-30.47
-31.25
-32.54
-34.42
-36.73
-39.06
-40.95
-41.99
-42.01
-41.19
-40.16
-39.93
-41.50
-45.21
-50.18
-53.96
-52.94
-43.40
-22.79
8.98
49.21
92.86
133.67
165.62
184.19
187.11
174.67
149.51
116.00
79.41
44.77
15.84
-5.64
-19.87
-28.46
-33.65
-37.56
-41.83
-47.59
-55.57
-66.16
-79.00
-92.82
-105.59
-115.16
-120.07
-119.98
-115.35
-106.78
-94.38
-77.92
-57.47
-34.10
-9.92
12.73
32.43
49.34
64.90
80.27
94.98
106.21
109.83
102.00
80.84
47.25
4.67
-41.46
-84.86
-119.23
-139.30
-141.58
-125.42
-93.58
-51.59
-6.36
36.12
72.04
100.52
123.31
143.69
164.29
185.19
203.03
212.08
207.01
185.62
150.64
107.61
65.57
33.80
18.34
19.79
34.08
55.39
78.75
101.25
121.23
137.25
147.55
150.59
147.33
138.80
127.08
114.65
102.78
90.64
76.18
57.76
34.77
6.91
-26.42
-66.29
-114.06
-168.00
-222.97
-273.91
-314.75
-338.81
-343.68
-331.09
-304.92
-269.19
-227.11
-182.52
-140.72
-107.45
-86.88
-79.07
-78.42
-75.56
-62.25
-35.37
1.13
38.31
67.00
81.76
81.32
68.75
49.27
28.10
9.95
-1.69
-5.36
-2.03
4.56
9.31
8.65
2.20
-6.07
-9.04
-0.16
22.85
56.78
94.38
127.74
152.24
167.03
173.24
172.45
165.76
153.62
136.58
115.45
91.14
63.91
33.16
-2.89
-46.04
-96.47
-151.37
-204.64
-248.44
-276.02
-284.26
-274.85
-253.13
-225.40
-196.46
-168.57
-141.77
-115.57
-89.99
-65.67
-43.21
-22.35
-1.71
20.24
44.01
68.74
92.34
111.98
125.56
132.38
133.15
129.90
125.42
122.88
125.61
135.86
153.39
174.85
194.38
205.30
203.38
188.99
165.63
140.47
120.97
111.36
110.84
116.35
122.70
125.93
124.52
118.76
108.92
95.47
78.84
59.33
37.43
13.52
-12.06
-39.79
-71.40
-109.16
-154.71
-207.25
-262.37
-312.18
-347.87
-362.94
-356.05
-331.61
-297.62
-262.24
-231.03
-205.82
-185.43
-167.93
-152.17
-137.95
-125.23
-113.25
-99.91
-82.91
-61.02
-34.69
-6.00
21.81
46.02
65.43
80.35
92.78
105.46
121.11
142.30
170.77
206.16
245.60
283.83
313.99
330.76
332.44
319.05
294.94
266.71
240.03
217.49
201.56
190.18
180.54
170.78
160.29
148.21
134.78
120.51
106.00
91.96
78.26
64.45
49.54
31.86
9.43
-20.09
-59.50
-110.63
-172.67
-241.31
-308.18
-363.18
-397.77
-407.77
-394.36
-363.09
-320.75
-272.57
-222.06
-171.89
-126.14
-90.72
-71.21
-69.56
-81.99
-99.42
-111.03
-109.27
-92.56
-65.58
-36.14
-10.95
7.15
19.34
29.44
41.89
60.02
85.24
116.47
150.24
181.36
204.25
214.79
211.17
195.81
174.85
155.74
143.97
140.96
144.35
150.78
156.67
159.64
158.69
153.90
146.41
137.99
130.33
124.89
121.66
118.71
112.68
99.49
75.32
37.57
-14.02
-76.18
-141.58
-199.83
-240.77
-258.64
-255.44
-240.57
-226.89
-224.40
-235.05
-251.81
-262.90
-258.55
-236.42
-202.54
-167.21
-139.05
-120.49
-107.54
-93.40
-73.35
-47.71
-21.46
-1.12
9.16
9.59
4.19
-1.46
-2.63
3.39
17.36
38.60
65.30
94.36
121.38
141.62
151.60
150.51
141.81
132.19
128.56
134.51
148.75
166.11
180.55
188.94
190.98
188.42
183.37
177.04
169.43
159.71
146.62
129.10
106.29
77.50
41.80
-2.31
-55.82
-117.25
-181.22
-238.85
-281.02
-302.81
-306.22
-299.26
-291.51
-288.75
-290.01
-288.76
-277.69
-253.48
-218.88
-180.53
-144.75
-114.09
-87.10
-60.69
-33.06
-5.29
19.41
37.71
48.80
54.68
59.25
66.75
80.51
102.49
132.87
169.37
207.07
239.77
261.45
268.53
261.39
242.69
218.47
195.51
180.70
175.63
178.31
184.21
189.30
190.80
187.29
179.00
167.25
153.69
139.45
125.20
110.81
95.99
80.43
63.52
43.86
18.66
-15.41
-60.16
-112.86
-165.38
-206.50
-226.88
-224.04
-204.13
-178.83
-159.32
-150.38
-148.46
-145.42
-135.09
-118.79
-105.75
-107.55
-130.48
-170.16
-212.18
-238.73
-237.37
-206.78
-157.07
-104.26
-62.76
-39.61
-33.54
-38.10
-46.40
-54.38
-60.82
-65.45
-67.27
-64.44
-55.55
-41.40
-25.13
-9.90
1.57
9.50
17.19
29.11
47.91
72.87
100.48
126.74
148.73
165.26
176.04
180.63
178.43
169.64
155.64
138.29
119.21
99.38
79.11
58.44
37.97
17.95
-2.48
-25.31
-52.56
-84.39
-118.04
-148.67
-171.43
-183.96
-187.46
-185.69
-182.52
-179.59
-175.66
-167.81
-153.90
-134.02
-110.42
-85.87
-61.93
-38.19
-12.94
15.52
47.28
79.86
109.18
131.20
143.92
148.16
146.97
144.12
142.89
145.79
154.37
169.09
188.97
210.99
229.87
239.48
235.35
215.00
181.80
143.98
111.13
90.47
84.03
88.46
97.54
105.27
107.76
104.04
96.43
86.85
77.10
68.98
63.56
60.80
59.42
56.88
49.88
34.75
7.97
-32.37
-84.37
-141.95
-195.56
-235.39
-255.65
-257.40
-248.52
-240.09
-240.51
-251.27
-266.81
-277.97
-277.41
-263.29
-239.26
-211.47
-184.65
-159.62
-134.04
-105.17
-72.44
-38.53
-8.00
15.15
29.33
35.92
38.43
40.92
46.51
57.36
74.66
98.68
128.41
160.68
190.27
211.28
219.38
212.62
194.06
170.83
151.71
143.17
146.71
158.77
173.22
184.19
188.10
185.82
178.97
169.79
160.36
152.16
145.50
139.42
132.14
121.57
105.89
82.99
51.35
10.45
-38.17
-89.70
-136.24
-169.71
-186.04
-188.05
-185.30
-189.11
-206.16
-233.89
-261.45
-275.97
-270.51
-248.73
-222.85
-206.66
-206.91
-219.73
-233.37
-235.31
-219.48
-188.91
-153.13
-121.97
-100.71
-88.03
-78.35
-66.06
-48.58
-26.79
-2.92
22.00
49.11
80.20
115.68
152.86
186.16
209.50
219.06
215.07
201.72
185.26
171.47
164.00
163.78
169.46
178.50
187.81
194.35
195.82
191.25
181.36
168.23
154.31
141.09
128.51
114.68
96.44
70.26
33.11
-16.48
-77.31
-144.90
-211.77
-268.77
-307.85
-324.90
-321.35
-303.44
-279.39
-256.03
-236.34
-219.31
-201.71
-181.09
-157.76
-134.79
-116.10
-103.82
-96.69
-90.46
-80.21
-62.81
-38.74
-11.76
13.09
32.06
44.48
52.64
60.35
71.09
86.96
108.43
134.57
163.11
190.35
211.56
222.15
219.53
203.07
176.25
146.02
120.31
104.99
101.65
107.92
119.38
131.87
143.39
152.32
156.76
154.93
146.24
131.88
114.81
98.40
85.23
75.26
66.28
54.28
34.24
1.62
-45.78
-106.17
-173.19
-237.16
-288.13
-319.25
-329.10
-321.79
-304.55
-284.27
-264.93
-246.79
-228.05
-207.05
-183.79
-159.76
-136.77
-115.37
-94.46
-72.04
-46.45
-17.78
12.11
39.90
62.48
77.98
86.58
90.49
93.18
98.95
111.49
132.82
161.78
193.67
221.27
237.32
237.56
221.23
193.48
163.27
140.08
129.62
131.60
140.71
150.03
154.44
152.44
147.19
141.93
138.98
138.82
140.33
141.50
140.30
135.71
127.56
116.24
100.61
78.30
46.40
3.36
-48.38
-102.25
-149.70
-184.34
-204.77
-215.04
-220.94
-225.57
-226.98
-220.31
-202.92
-178.77
-158.18
-152.50
-167.02
-196.41
-226.86
-243.09
-236.50
-209.12
-171.60
-136.74
-112.94
-101.43
-97.78
-95.79
-90.89
-81.34
-67.50
-50.66
-32.44
-15.09
-1.34
7.17
9.82
8.71
8.76
15.68
33.17
61.08
95.60
131.27
162.93
186.79
201.78
208.02
205.90
196.22
180.27
160.69
141.68
128.36
124.36
129.31
137.26
137.91
121.42
83.72
30.16
-26.24
-71.26
-97.23
-106.92
-111.33
-122.18
-144.31
-172.90
-196.86
-205.81
-196.15
-172.23
-142.85
-116.01
-94.90
-77.76
-61.02
-42.65
-24.00
-8.85
-0.65
-0.27
-5.31
-10.56
-9.54
3.09
29.65
68.03
111.68
151.49
178.88
188.02
178.68
156.90
132.66
115.78
111.50
118.84
132.07
144.27
151.47
152.31
147.49
138.51
126.97
114.25
101.74
90.63
81.38
73.36
65.12
54.29
37.80
12.58
-23.22
-68.30
-117.25
-161.14
-190.55
-200.01
-191.14
-172.72
-156.83
-153.11
-164.11
-184.61
-205.18
-217.58
-218.78
-211.26
-200.11
-189.08
-178.45
-165.74
-148.30
-125.82
-100.85
-77.61
-59.40
-46.92
-38.02
-28.75
-14.71
7.63
39.95
81.33
127.74
172.63
208.43
229.05
232.14
220.24
199.96
179.30
164.50
157.92
157.99
160.85
162.84
162.16
159.47
157.17
158.02
163.77
174.48
188.57
203.00
214.30
219.53
216.36
202.85
177.22
138.38
87.40
28.93
-28.57
-74.91
-102.32
-109.32
-101.73
-89.54
-81.46
-80.61
-84.05
-86.79
-86.74
-88.07
-99.72
-129.67
-178.67
-237.62
-290.32
-320.75
-320.47
-291.77
-246.26
-199.02
-162.49
-142.47
-138.19
-144.87
-157.30
-172.01
-186.57
-198.42
-204.09
-200.38
-186.49
-165.46
-143.62
-125.04
-111.94
-101.74
-87.56
-61.74
-20.31
34.48
95.18
152.65
199.73
232.44
250.69
256.61
252.82
241.77
225.81
206.99
186.70
165.51
142.06
113.71
78.04
34.82
-12.29
-56.36
-89.46
-105.90
-104.71
-89.12
-66.99
-47.14
-35.55
-33.36
-37.61
-43.99
-50.42
-56.39
-62.65
-69.57
-76.11
-80.12
-79.51
-72.80
-60.40
-44.50
-27.67
-12.35
0.03
9.61
17.62
25.73
35.93
50.43
71.48
100.50
136.72
176.13
212.14
237.69
246.36
236.67
213.29
185.39
162.45
149.62
145.73
145.06
140.92
131.23
116.80
100.83
86.85
77.28
72.33
70.49
69.57
67.43
61.96
51.17
33.17
6.37
-28.97
-69.53
-108.44
-137.30
-150.06
-146.62
-133.81
-122.46
-121.97
-135.43
-158.39
-181.50
-195.88
-197.56
-188.50
-174.01
-158.93
-144.62
-129.19
-110.00
-85.91
-58.24
-29.87
-2.89
22.56
47.97
75.17
104.63
134.24
159.43
174.62
174.96
158.34
126.18
83.44
37.68
-3.00
-32.51
-48.41
-52.48
-49.30
-44.04
-40.40
-39.71
-41.10
-42.57
-42.82
-41.79
-40.75
-41.26
-44.41
-50.74
-60.53
-73.24
-86.82
-97.45
-100.02
-90.00
-65.46
-28.67
15.17
56.91
87.07
99.65
94.44
76.27
51.86
26.63
3.41
-16.20
-30.66
-37.62
-34.60
-20.28
5.14
38.71
75.08
107.94
131.13
139.60
130.61
104.17
62.97
11.74
-43.51
-96.55
-141.92
-174.11
-189.27
-185.82
-164.72
-129.31
-84.30
-34.26
17.25
67.59
114.64
155.93
189.52
213.10
223.83
219.53
199.48
164.63
117.63
62.50
4.34
-51.26
-98.04
-130.68
-149.63
-158.30
-160.86
-158.79
-152.04
-138.98
-117.89
-88.13
-56.69
-32.13
-23.03
-33.51
-60.34
-93.14
-118.19
-123.96
-105.87
-68.31
-21.44
23.99
61.48
90.45
114.78
139.53
166.40
192.56
212.92
220.94
210.80
181.84
139.00
91.16
47.93
16.12
-2.28
-10.06
-12.48
-14.51
-18.89
-26.35
-36.66
-49.41
-63.95
-78.86
-91.81
-100.36
-103.39
-102.21
-100.72
-104.09
-116.32
-138.12
-166.13
-194.10
-215.21
-224.40
-219.72
-202.55
-176.65
-146.68
-116.66
-88.98
-64.12
-40.85
-17.04
9.04
37.23
64.78
87.26
100.75
104.33
101.33
98.27
102.11
117.16
143.24
176.07
209.47
238.17
259.37
272.91
280.02
281.80
278.35
268.91
252.47
228.57
197.57
160.89
121.00
81.29
45.45
16.78
-2.78
-13.51
-18.05
-20.89
-27.06
-40.34
-61.83
-89.49
-118.87
-144.81
-163.37
-173.02
-174.64
-170.63
-163.61
-155.62
-148.44
-144.06
-145.06
-153.74
-170.22
-190.77
-207.79
-212.22
-197.60
-163.50
-116.31
-66.50
-24.04
5.69
23.21
33.16
41.15
51.15
64.71
81.86
102.21
125.21
149.51
172.36
189.89
198.63
197.19
187.08
172.02
156.31
143.26
134.47
130.06
129.02
129.61
129.41
125.67
116.00
99.31
76.33
49.34
21.17
-6.14
-32.08
-57.49
-83.81
-112.09
-142.54
-174.48
-206.69
-237.62
-265.31
-287.12
-299.79
-299.97
-285.30
-255.54
-213.11
-162.76
-110.25
-60.73
-17.20
19.85
51.99
81.49
110.04
138.12
165.13
189.94
211.22
227.34
236.09
234.95
221.88
196.37
160.04
116.34
69.63
23.91
-17.83
-53.74
-82.80
-104.38
-118.11
-123.88
-121.79
-111.99
-94.73
-70.68
-41.46
-9.95
20.11
45.42
64.43
78.01
88.83
99.83
112.55
126.36
138.95
147.71
151.00
148.98
143.19
135.58
127.49
119.11
109.69
98.30
84.55
68.76
51.62
33.49
13.96
-7.91
-32.97
-61.05
-90.58
-118.85
-142.91
-160.60
-171.27
-175.95
-176.83
-176.53
-177.27
-180.23
-184.97
-189.12
-188.69
-179.03
-156.15
-118.19
-66.58
-6.25
55.20
109.27
148.82
169.89
172.66
161.05
141.14
119.08
99.28
83.55
71.41
61.01
50.11
36.79
19.59
-2.34
-28.79
-58.03
-86.62
-110.06
-124.17
-126.60
-117.76
-100.66
-79.72
-59.19
-41.96
-29.14
-20.39
-14.66
-10.70
-7.53
-4.48
-1.28
2.01
5.02
7.28
8.38
8.20
7.01
5.41
4.12
3.74
4.56
6.48
9.01
11.47
13.16
13.62
12.76
10.83
8.32
5.70
3.28
1.18
-0.68
-2.40
-4.02
-5.51
-6.83
-7.98
-9.01
-9.91
-10.57
-10.84
-10.58
-9.81
-8.78
-7.94
-7.72
-8.38
-9.88
-11.88
-13.84
-15.30
-16.02
-16.06
-15.73
-15.43
-15.41
-15.75
-16.27
-16.76
-16.99
-16.82
-16.15
-14.94
-13.12
-10.65
-7.60
-4.12
-0.49
3.03
6.31
9.35
12.23
14.94
17.30
18.98
19.64
19.12
17.62
15.61
13.66
12.14
11.04
9.95
8.34
5.80
2.40
-1.31
-4.52
-6.52
-7.00
-6.18
-4.65
-3.03
-1.68
-0.55
0.63
2.10
3.84
5.50
6.65
7.08
6.96
6.82
7.24
8.53
10.52
12.68
14.36
15.09
14.68
13.23
10.96
8.15
5.07
2.02
-0.64
-2.62
-3.71
-3.97
-3.67
-3.16
-2.77
-2.65
-2.80
-3.10
-3.42
-3.67
-3.80
-3.78
-3.60
-3.23
-2.67
-1.96
-1.23
-0.59
-0.12
0.24
0.64
1.22
2.02
2.97
3.90
4.70
5.30
5.69
5.85
5.72
5.20
4.27
3.04
1.77
0.76
0.20
0.11
0.39
0.88
1.47
2.13
2.80
3.43
3.98
4.41
4.78
5.19
5.74
6.44
7.22
7.96
8.55
8.93
9.06
8.94
8.58
7.96
7.07
5.92
4.54
3.02
1.42
-0.24
-2.00
-3.92
-6.04
-8.24
-10.23
-11.67
-12.27
-11.97
-10.93
-9.50
-7.98
-6.58
-5.36
-4.37
-3.74
-3.71
-4.50
-6.12
-8.30
-10.52
-12.20
-12.98
-12.79
-11.89
-10.72
-9.72
-9.12
-8.86
-8.61
-7.87
-6.17
-3.37
0.22
3.78
6.28
7.00
5.98
4.20
3.28
4.66
8.88
15.15
21.62
26.22
27.59
25.68
21.54
16.78
12.76
10.10
8.72
8.26
8.38
8.95
9.88
10.82
11.23
10.43
8.06
4.19
-0.66
-5.77
-10.61
-15.01
-19.10
-23.14
-27.26
-31.36
-35.22
-38.76
-42.14
-45.88
-50.63
-56.89
-64.69
-73.63
-82.99
-92.07
-100.57
-108.63
-116.76
-125.40
-134.71
-144.32
-153.26
-159.83
-161.70
-156.23
-141.22
-115.93
-81.85
-42.58
-2.72
33.81
65.13
91.68
115.33
137.87
159.92
180.66
198.64
212.79
222.99
229.94
234.47
237.09
237.75
236.08
231.61
223.86
212.26
195.93
173.86
145.37
110.71
71.45
30.38
-9.10
-43.93
-72.14
-93.15
-107.45
-115.90
-119.24
-117.94
-112.60
-104.29
-94.72
-85.79
-78.90
-74.29
-71.10
-67.87
-63.39
-57.36
-50.48
-44.12
-39.66
-38.00
-39.27
-42.71
-46.69
-48.87
-46.57
-37.68
-21.54
0.39
24.62
46.70
62.78
70.89
71.43
66.50
58.61
49.47
39.65
28.95
17.33
5.50
-5.18
-13.23
-17.91
-19.54
-19.26
-18.45
-17.94
-17.80
-17.43
-16.14
-13.63
-10.24
-6.77
-4.11
-2.77
-2.69
-3.33
-3.94
-3.92
-3.02
-1.34
0.79
3.05
5.22
7.22
9.03
10.64
12.04
13.18
14.06
14.63
14.80
14.38
13.18
11.04
7.97
4.19
0.11
-3.83
-7.26
-10.03
-12.11
-13.59
-14.57
-15.18
-15.51
-15.75
-16.18
-17.12
-18.75
-21.02
-23.57
-25.84
-27.40
-28.18
-28.68
-29.74
-32.18
-36.27
-41.44
-46.33
-49.35
-49.49
-46.81
-42.78
-39.56
-39.19
-42.46
-48.35
-54.30
-57.12
-53.96
-42.97
-23.47
4.09
37.96
74.93
110.43
139.55
158.62
166.96
167.36
164.87
164.27
167.41
172.16
173.43
165.77
146.03
114.69
75.25
32.57
-8.79
-45.52
-75.52
-97.46
-110.55
-114.62
-110.34
-99.55
-85.00
-69.70
-56.30
-46.36
-40.17
-36.83
-34.84
-32.73
-29.66
-25.70
-21.65
-18.53
-17.03
-17.13
-18.14
-19.10
-19.20
-18.16
-16.28
-14.15
-12.42
-11.46
-11.36
-11.89
-12.68
-13.33
-13.47
-12.87
-11.50
-9.51
-7.23
-5.02
-3.16
-1.78
-0.86
-0.28
0.06
0.22
0.22
0.02
-0.37
-0.91
-1.49
-1.94
-2.01
-1.51
-0.36
1.31
3.18
4.81
5.85
6.09
5.63
4.73
3.70
2.77
2.01
1.37
0.76
0.09
-0.65
-1.39
-2.01
-2.38
-2.43
-2.09
-1.38
-0.35
0.89
2.19
3.40
4.42
5.18
5.68
5.94
5.89
5.50
4.71
3.57
2.18
0.71
-0.66
-1.82
-2.70
-3.32
-3.76
-4.16
-4.64
-5.31
-6.21
-7.17
-7.92
-8.04
-7.22
-5.32
-2.51
0.72
3.71
5.84
6.70
6.13
4.28
1.57
-1.39
-3.86
-5.07
-4.46
-1.80
2.66
8.25
14.04
19.16
22.96
25.10
25.53
24.43
22.17
19.21
16.10
13.37
11.44
10.50
10.47
11.00
11.68
12.10
11.96
11.27
10.22
9.14
8.24
7.51
6.54
4.77
1.66
-2.97
-8.84
-15.26
-21.33
-26.23
-29.40
-30.62
-29.99
-27.73
-24.23
-19.89
-15.24
-10.90
-7.50
-5.49
-4.92
-5.34
-5.95
-5.90
-4.74
-2.64
-0.37
1.18
1.39
0.24
-1.74
-3.80
-5.37
-6.21
-6.39
-6.13
-5.54
-4.70
-3.69
-2.68
-1.97
-1.84
-2.43
-3.67
-5.34
-7.14
-8.79
-10.13
-11.07
-11.57
-11.60
-11.11
-10.04
-8.34
-6.09
-3.54
-1.17
0.53
1.14
0.57
-0.95
-2.99
-5.14
-7.29
-9.65
-12.58
-16.30
-20.72
-25.25
-29.08
-31.44
-32.00
-31.13
-29.86
-29.60
-31.48
-35.88
-41.99
-47.84
-50.92
-49.20
-42.09
-31.11
-19.70
-11.84
-10.61
-16.40
-26.37
-35.25
-37.04
-26.91
-2.40
36.14
85.59
140.14
191.65
230.82
249.44
243.33
214.74
172.59
129.95
99.49
88.88
98.43
121.90
149.96
174.26
190.20
197.55
199.11
198.64
199.50
203.74
212.02
223.48
235.59
243.90
242.47
225.31
189.02
135.36
72.27
12.30
-31.57
-51.25
-47.01
-27.86
-8.54
-3.70
-22.50
-66.07
-128.18
-199.06
-270.37
-337.76
-400.90
-461.26
-518.43
-567.79
-601.22
-610.36
-590.65
-544.43
-480.01
-409.01
-343.06
-291.09
-258.18
-245.68
-252.04
-269.40
-288.18
-297.04
-285.30
-246.55
-181.00
-95.18
1.49
99.89
193.13
275.92
344.20
394.19
423.58
431.62
419.74
392.76
358.88
327.31
304.81
292.80
289.00
287.35
280.07
259.93
221.81
163.14
84.12
-11.54
-114.91
-213.92
-295.00
-346.24
-360.97
-339.72
-289.51
-221.69
-148.39
-80.57
-26.63
7.93
21.18
15.99
-0.42
-17.07
-22.87
-9.79
24.20
74.12
129.70
179.27
213.11
226.23
221.03
202.05
175.45
148.01
125.73
112.95
111.76
121.00
135.03
146.55
147.74
133.71
104.69
65.37
22.01
-20.44
-59.74
-95.97
-128.93
-156.99
-178.05
-188.97
-187.69
-174.37
-151.10
-121.98
-92.47
-68.09
-53.89
-52.85
-64.08
-82.27
-99.05
-105.27
-95.17
-68.57
-30.05
13.60
56.15
94.04
125.83
150.33
166.05
172.78
170.49
162.19
153.84
151.61
158.78
173.60
187.50
191.66
180.16
152.52
113.25
68.28
20.48
-31.14
-88.78
-151.86
-213.65
-263.44
-291.04
-292.83
-270.58
-231.25
-184.69
-139.94
-104.24
-81.52
-73.14
-78.04
-91.77
-107.26
-116.22
-111.32
-87.81
-45.72
10.95
74.47
134.40
180.41
204.87
205.34
185.89
158.07
133.28
120.88
124.88
142.58
166.10
185.54
193.07
183.61
159.13
125.29
88.34
51.82
15.71
-21.53
-60.49
-98.77
-131.72
-154.77
-166.23
-167.48
-162.33
-153.33
-141.27
-126.21
-109.11
-92.72
-80.94
-76.56
-78.45
-81.60
-78.81
-64.56
-38.09
-3.28
33.59
66.71
93.34
113.42
127.97
137.12
140.14
135.07
121.97
104.14
87.33
77.75
78.22
87.08
99.40
108.61
110.73
104.89
91.31
68.74
34.13
-15.95
-80.75
-152.34
-217.18
-260.85
-274.11
-256.83
-218.80
-171.97
-128.03
-95.01
-76.12
-70.83
-75.81
-85.44
-93.35
-93.49
-81.69
-57.61
-24.26
13.39
50.34
82.88
108.95
127.05
135.65
133.67
122.28
104.93
88.08
78.94
82.04
96.69
116.42
131.85
135.18
122.86
98.15
67.39
35.36
2.48
-34.03
-75.99
-120.72
-161.00
-187.84
-195.03
-182.26
-154.61
-119.14
-81.38
-43.97
-8.41
22.71
44.68
51.95
42.65
21.13
-3.27
-20.21
-23.35
-12.82
6.16
26.30
41.61
49.43
50.38
47.23
43.94
45.19
54.15
71.83
96.22
121.93
142.14
151.47
148.00
133.90
113.73
91.81
69.48
47.18
23.98
-0.50
-24.82
-46.62
-63.91
-76.17
-84.09
-88.61
-90.09
-88.63
-85.09
-81.52
-80.87
-85.23
-93.93
-103.25
-107.44
-101.56
-84.13
-58.20
-29.03
-1.63
21.20
39.03
52.85
63.29
69.83
71.77
69.85
66.25
63.72
63.81
65.46
65.38
60.63
50.83
38.83
28.89
24.59
25.61
27.73
25.39
14.70
-4.05
-27.12
-49.47
-67.30
-78.82
-84.08
-83.26
-76.51
-65.42
-53.10
-43.80
-40.81
-44.80
-52.49
-58.32
-57.13
-46.57
-28.34
-6.44
15.13
34.32
51.21
66.73
80.70
91.22
95.73
92.17
80.69
63.43
43.76
25.08
10.06
1.04
-0.32
6.10
17.75
29.00
32.85
24.46
3.62
-24.39
-51.17
-69.76
-77.75
-77.54
-73.54
-69.13
-64.17
-57.35
-48.95
-42.28
-42.19
-51.77
-68.97
-86.53
-95.09
-87.77
-64.02
-29.30
7.80
39.40
61.44
73.82
78.75
78.55
74.78
69.01
63.61
61.94
66.28
76.21
87.38
93.16
88.36
72.41
49.64
28.22
14.71
10.42
11.47
11.41
5.42
-7.10
-23.10
-38.50
-50.38
-57.89
-61.65
-62.42
-61.31
-60.20
-61.63
-67.72
-78.61
-91.60
-101.26
-102.41
-92.16
-71.36
-43.87
-14.32
13.61
37.98
58.09
73.01
80.92
80.31
71.93
59.55
49.73
48.87
60.01
80.43
102.19
115.63
113.56
95.54
67.11
36.79
11.70
-5.41
-16.36
-25.16
-35.43
-48.00
-61.48
-73.73
-82.95
-88.05
-88.30
-83.04
-72.22
-57.52
-42.60
-32.26
-30.44
-37.57
-49.72
-60.02
-61.83
-52.05
-32.43
-8.04
15.49
34.55
48.53
58.51
65.20
68.06
66.48
61.12
55.04
51.90
53.40
58.04
61.13
58.12
47.75
33.16
20.25
14.06
15.83
21.85
26.11
23.53
12.78
-3.71
-22.09
-39.20
-53.26
-63.29
-68.46
-67.88
-62.42
-55.33
-51.45
-55.06
-67.04
-83.25
-96.29
-99.08
-88.01
-64.74
-34.77
-4.65
20.65
39.09
50.44
55.08
53.99
48.99
43.75
42.85
49.87
64.86
84.24
101.91
112.11
112.21
103.41
89.27
72.53
54.90
35.55
13.28
-11.28
-34.84
-52.98
-62.48
-62.75
-55.93
-45.04
-33.44
-23.96
-19.03
-20.57
-29.48
-44.74
-62.51
-77.08
-83.04
-77.84
-62.76
-41.87
-19.61
1.40
20.22
37.33
52.69
64.79
70.82
68.90
59.80
46.97
35.61
30.21
32.18
39.64
48.94
56.50
60.39
59.56
52.69
37.86
13.82
-18.25
-53.10
-82.97
-100.53
-102.47
-90.72
-71.01
-49.22
-29.47
-14.02
-4.55
-3.33
-12.03
-30.33
-54.09
-75.61
-86.82
-83.18
-65.73
-39.69
-11.97
11.97
30.18
43.18
52.48
59.22
63.63
65.53
65.12
63.09
59.83
55.22
47.88
36.04
18.93
-1.75
-21.61
-35.05
-38.24
-31.21
-18.32
-6.76
-3.20
-10.65
-27.20
-46.91
-62.64
-68.84
-63.14
-46.26
-21.27
7.54
34.77
54.11
59.94
49.71
25.91
-2.77
-23.71
-25.94
-5.66
30.85
69.20
93.21
92.15
65.51
23.14
-19.44
-47.84
-53.95
-37.84
-6.06
32.04
67.77
94.45
108.74
110.14
99.58
78.37
48.54
13.25
-22.69
-53.35
-72.81
-77.32
-66.25
-43.27
-15.60
8.15
20.64
18.99
5.86
-11.69
-25.32
-29.18
-22.57
-9.88
2.11
7.76
5.10
-4.07
-16.14
-28.27
-39.55
-50.84
-63.29
-76.64
-88.69
-96.06
-95.69
-85.29
-66.36
-42.53
-17.92
4.22
22.63
37.81
51.10
63.49
75.08
84.48
89.56
88.16
78.58
60.33
34.61
4.65
-24.18
-45.47
-53.75
-46.43
-24.34
5.79
34.72
54.46
61.31
56.17
43.06
26.43
9.62
-5.57
-18.19
-27.07
-31.32
-31.74
-31.48
-35.21
-46.89
-66.82
-91.09
-113.09
-126.17
-126.36
-114.28
-92.56
-65.49
-38.04
-15.00
-0.35
3.59
-2.48
-14.35
-25.36
-28.96
-21.80
-5.15
16.30
37.47
55.03
68.45
79.10
88.32
96.15
101.50
103.04
100.08
92.65
81.66
68.08
53.60
41.03
33.60
33.44
40.22
50.59
59.37
61.65
54.85
39.65
19.21
-2.96
-24.49
-44.48
-62.91
-79.25
-91.69
-97.37
-94.15
-81.63
-62.88
-44.06
-32.54
-33.24
-45.95
-64.70
-80.16
-83.60
-70.95
-44.44
-10.85
21.74
47.80
65.74
76.79
82.57
83.87
79.74
69.52
54.63
38.78
26.70
22.16
25.69
34.03
41.90
44.07
37.66
22.85
2.24
-20.74
-42.89
-62.23
-77.75
-88.80
-94.54
-93.99
-85.94
-70.61
-50.56
-30.76
-17.18
-13.78
-20.66
-33.45
-44.77
-47.79
-39.55
-22.14
-0.86
18.93
34.32
45.54
54.16
61.23
66.05
66.68
62.18
54.04
45.80
41.72
44.44
53.77
67.53
82.59
95.89
104.52
105.34
94.74
71.65
37.79
-1.55
-38.65
-66.56
-81.84
-85.20
-80.18
-70.92
-59.69
-48.10
-38.45
-33.94
-37.45
-49.47
-66.00
-79.87
-83.72
-73.86
-51.98
-23.68
4.50
27.82
44.95
56.45
62.86
64.31
61.47
56.23
50.97
47.79
46.75
45.85
42.66
36.44
29.23
24.26
23.39
24.55
22.38
11.79
-8.62
-34.73
-58.98
-74.52
-79.00
-74.56
-65.63
-55.86
-46.31
-37.17
-29.41
-25.70
-28.86
-39.68
-54.72
-67.36
-70.89
-61.89
-42.25
-17.24
6.81
25.83
39.13
48.15
54.91
60.40
64.66
67.28
67.93
66.39
62.06
54.42
43.24
29.86
17.82
11.72
14.99
27.70
45.72
61.96
69.51
64.81
48.69
25.51
0.62
-21.92
-40.34
-54.31
-63.46
-66.80
-63.88
-55.99
-47.11
-42.71
-47.08
-60.79
-79.51
-95.41
-101.16
-93.00
-72.20
-43.94
-14.52
11.38
32.06
47.74
59.35
67.18
70.73
69.36
63.21
54.20
45.12
39.09
37.91
41.23
46.56
50.71
51.35
47.62
40.80
32.72
24.52
15.85
5.61
-7.36
-22.96
-39.66
-55.20
-67.20
-73.84
-73.85
-66.93
-53.95
-38.12
-24.44
-18.09
-22.26
-35.88
-53.37
-66.86
-69.57
-58.95
-37.93
-12.51
11.27
29.93
43.22
52.69
59.30
62.47
61.04
55.11
47.12
40.89
39.10
41.66
45.25
45.52
40.19
30.49
20.19
13.60
12.12
13.42
13.10
7.44
-4.46
-20.33
-36.63
-50.62
-60.96
-67.25
-68.74
-63.81
-51.69
-34.08
-15.46
-1.93
1.35
-6.57
-21.75
-36.72
-43.80
-39.17
-23.95
-2.94
18.33
35.86
48.58
56.58
59.71
57.42
50.00
39.93
31.72
29.84
35.87
47.40
58.68
64.26
61.56
52.24
39.92
27.20
13.98
-1.63
-20.56
-41.11
-59.09
-69.99
-72.10
-67.41
-59.88
-52.58
-45.97
-38.61
-29.73
-21.13
-16.58
-19.88
-31.62
-47.66
-60.86
-64.60
-56.16
-37.88
-15.09
6.73
24.73
38.88
50.47
59.83
65.44
65.14
58.23
46.82
34.91
26.70
24.38
27.02
31.66
35.53
37.67
38.50
38.27
36.06
29.66
17.09
-1.36
-22.34
-41.10
-53.80
-59.73
-61.22
-61.53
-61.86
-60.54
-54.35
-41.10
-22.44
-3.85
7.39
6.30
-6.74
-25.71
-41.57
-46.79
-38.53
-20.14
1.67
20.42
32.79
39.38
43.01
45.92
48.37
48.86
46.11
40.29
32.89
25.74
20.00
15.59
12.28
10.67
12.37
18.81
29.75
42.38
51.83
53.86
46.74
32.13
13.92
-3.83
-18.77
-30.28
-38.29
-42.46
-42.43
-38.94
-34.71
-33.88
-39.88
-53.38
-70.98
-86.09
-92.26
-86.01
-68.30
-43.28
-16.45
8.03
28.28
43.79
55.07
62.00
63.90
60.15
51.39
39.48
27.58
19.11
16.14
18.64
24.34
30.21
33.96
34.68
33.07
30.31
26.70
21.60
13.84
2.78
-10.89
-25.21
-38.01
-47.30
-51.65
-50.41
-44.27
-35.28
-27.53
-25.75
-32.84
-48.51
-68.23
-84.58
-90.90
-84.11
-65.67
-40.30
-13.57
10.58
30.52
46.12
56.99
61.54
58.04
46.78
31.28
17.97
13.78
22.90
43.96
70.17
91.82
100.85
93.80
74.01
48.86
25.97
9.70
0.04
-6.28
-13.09
-22.66
-34.65
-46.85
-56.63
-62.01
-61.91
-56.30
-45.52
-30.93
-15.13
-1.87
4.93
3.12
-6.32
-18.95
-28.75
-31.05
-24.68
-12.04
2.79
16.53
28.06
37.82
45.88
51.20
52.56
49.42
43.34
36.50
30.34
24.28
16.76
7.09
-2.47
-7.40
-4.17
6.54
18.64
23.09
13.36
-10.01
-39.51
-64.46
-76.98
-76.13
-67.12
-56.99
-49.71
-44.52
-37.25
-25.35
-10.63
0.81
1.95
-10.11
-31.65
-53.68
-66.06
-62.72
-44.19
-16.76
11.43
33.68
47.45
53.62
54.37
51.40
45.51
37.45
28.59
21.60
19.07
22.53
31.23
42.44
53.07
60.82
64.88
64.91
61.17
53.05
39.76
21.17
-0.98
-23.04
-41.17
-52.71
-57.00
-54.97
-48.34
-38.77
-28.51
-20.44
-17.38
-21.37
-31.98
-45.85
-57.66
-62.59
-58.44
-46.20
-29.09
-10.62
6.96
22.96
37.14
48.74
56.30
58.13
53.23
42.32
28.34
15.60
9.08
12.19
25.10
44.24
63.30
75.47
76.81
67.55
51.48
33.60
17.37
3.59
-9.14
-22.52
-36.67
-49.61
-58.43
-60.72
-55.60
-44.25
-29.86
-16.88
-10.03
-12.76
-25.42
-44.65
-64.06
-76.24
-76.36
-64.06
-43.37
-20.26
0.31
16.56
29.84
42.52
55.93
68.95
78.45
80.80
73.89
58.42
38.23
19.54
8.30
7.95
17.79
33.73
50.29
62.66
67.61
63.01
46.92
17.79
-23.47
-71.76
-117.74
-150.33
-161.35
-149.45
-120.50
-84.41
-50.53
-24.47
-7.69
0.01
-1.25
-11.72
-30.27
-52.64
-71.77
-80.12
-73.89
-54.31
-27.00
1.25
25.12
42.49
53.96
61.42
66.25
68.80
68.53
64.39
55.95
44.24
32.13
23.84
23.31
31.99
47.61
64.65
76.06
76.82
65.66
45.25
20.49
-3.76
-24.35
-39.99
-50.15
-54.07
-50.27
-38.04
-18.78
3.08
21.03
28.77
23.08
5.85
-16.60
-35.43
-43.77
-39.33
-24.86
-6.15
11.08
23.62
31.50
36.88
42.08
47.93
53.71
57.92
59.30
57.51
53.43
48.67
44.73
42.19
40.29
37.37
31.48
21.28
6.26
-13.48
-37.56
-65.30
-94.64
-122.08
-142.34
-149.94
-141.52
-117.96
-84.79
-50.33
-22.37
-5.28
1.43
1.51
-0.58
-1.99
-2.34
-3.22
-6.41
-12.58
-20.75
-28.91
-34.86
-36.95
-34.63
-28.69
-21.10
-13.97
-8.75
-5.74
-3.74
-0.64
5.74
16.69
32.39
51.50
71.92
90.70
104.46
109.97
105.28
90.81
69.25
46.52
28.35
18.00
14.77
14.47
11.79
3.21
-10.99
-26.70
-36.89
-35.53
-20.20
6.00
34.72
54.95
57.16
37.44
-0.10
-44.49
-82.34
-103.07
-102.91
-85.56
-59.28
-32.64
-10.96
4.63
15.65
23.57
28.16
27.46
19.85
6.05
-9.98
-22.06
-24.52
-15.28
2.84
23.05
37.58
41.01
32.54
15.93
-2.55
-16.97
-24.04
-23.75
-18.46
-11.22
-4.18
1.74
6.57
10.48
13.25
14.22
12.76
8.74
2.76
-3.93
-9.90
-14.10
-16.25
-16.96
-17.40
-18.69
-21.21
-24.30
-26.52
-26.45
-23.50
-18.31
-12.51
-7.99
-5.96
-6.52
-8.79
-11.41
-13.18
-13.42
-11.98
-9.08
-5.16
-0.85
3.10
6.00
7.48
7.89
8.27
10.02
14.22
20.96
29.12
36.75
41.88
43.37
41.50
37.69
33.89
31.65
31.49
32.76
34.12
34.17
32.12
28.08
22.85
17.48
12.81
9.11
6.15
3.56
1.16
-0.87
-2.16
-2.54
-2.27
-2.01
-2.53
-4.19
-6.71
-9.27
-10.95
-11.23
-10.32
-9.03
-8.37
-9.00
-10.93
-13.54
-15.91
-17.20
-16.97
-15.32
-12.69
-9.77
-7.21
-5.44
-4.65
-4.76
-5.52
-6.56
-7.49
-7.98
-7.86
-7.09
-5.77
-4.11
-2.34
-0.71
0.57
1.32
1.43
0.94
-0.06
-1.32
-2.57
-3.57
-4.24
-4.63
-4.97
-5.52
-6.43
-7.63
-8.86
-9.78
-10.04
-9.43
-7.96
-5.81
-3.35
-1.01
0.75
1.62
1.48
0.52
-0.89
-2.32
-3.43
-4.11
-4.45
-4.59
-4.55
-4.26
-3.67
-2.83
-1.93
-1.17
-0.52
0.37
2.02
4.85
8.80
13.22
17.08
19.51
20.13
19.22
17.48
15.63
14.03
12.64
11.16
9.40
7.45
5.63
4.34
3.79
3.86
4.21
4.49
4.49
4.24
3.92
3.70
3.62
3.52
3.19
2.51
1.53
0.45
-0.43
-0.92
-1.04
-0.97
-1.03
-1.53
-2.66
-4.39
-6.56
-8.83
-10.83
-12.24
-12.83
-12.57
-11.65
-10.41
-9.27
-8.60
-8.60
-9.17
-10.04
-10.80
-11.11
-10.90
-10.31
-9.57
-8.89
-8.24
-7.47
-6.43
-5.11
-3.65
-2.24
-0.94
0.32
1.68
3.25
4.94
6.54
7.77
8.48
8.72
8.69
8.68
8.98
9.70
10.73
11.70
12.10
11.37
9.26
5.98
2.16
-1.30
-3.61
-4.37
-3.62
-1.75
0.72
3.29
5.53
7.13
7.98
8.13
7.81
7.38
7.08
6.96
6.86
6.54
5.82
4.74
3.51
2.37
1.44
0.64
-0.20
-1.26
-2.58
-4.16
-5.94
-7.95
-10.22
-12.66
-15.08
-17.18
-18.69
-19.56
-19.88
-19.89
-19.77
-19.48
-18.86
-17.80
-16.42
-15.19
-14.82
-15.85
-18.46
-22.21
-26.24
-29.60
-31.66
-32.33
-31.96
-31.00
-29.56
-27.30
-23.59
-18.00
-10.71
-2.65
4.88
10.75
14.44
16.14
16.53
16.34
16.16
16.28
16.86
17.89
19.20
20.32
20.55
19.13
15.57
9.81
2.32
-6.09
-14.45
-21.77
-27.27
-30.47
-31.33
-30.37
-28.54
-26.91
-26.27
-26.83
-28.13
-29.30
-29.40
-27.90
-24.84
-20.72
-16.25
-12.02
-8.37
-5.36
-2.99
-1.32
-0.52
-0.79
-2.19
-4.56
-7.56
-10.88
-14.35
-17.95
-21.59
-24.81
-26.71
-26.13
-22.23
-15.07
-5.81
3.60
11.24
16.09
18.60
20.39
23.57
29.73
39.30
51.43
64.52
76.73
86.54
92.95
95.53
94.37
90.00
83.35
75.50
67.46
59.90
53.02
46.62
40.38
34.06
27.70
21.57
15.97
11.11
7.01
3.55
0.62
-1.83
-3.77
-5.17
-6.15
-7.01
-8.15
-9.84
-12.02
-14.23
-15.81
-16.19
-15.22
-13.35
-11.39
-10.20
-10.26
-11.48
-13.24
-14.78
-15.54
-15.37
-14.46
-13.11
-11.50
-9.69
-7.74
-5.88
-4.46
-3.77
-3.74
-3.80
-3.06
-0.77
3.30
8.62
14.11
18.58
21.24
21.94
21.05
19.21
16.96
14.62
12.36
10.26
8.46
7.08
6.16
5.52
4.77
3.44
1.19
-2.05
-6.00
-10.09
-13.62
-15.98
-16.78
-16.02
-14.01
-11.30
-8.50
-6.07
-4.31
-3.26
-2.89
-3.12
-3.85
-4.89
-5.89
-6.41
-6.04
-4.62
-2.35
0.27
2.65
4.40
5.45
6.07
6.75
7.92
9.75
12.12
14.65
16.78
18.13
18.51
18.11
17.34
16.68
16.41
16.53
16.76
16.73
16.23
15.24
13.99
12.66
11.33
9.92
8.24
6.22
3.93
1.65
-0.33
-1.85
-2.98
-3.97
-5.07
-6.35
-7.59
-8.37
-8.20
-6.78
-4.10
-0.42
3.84
8.25
12.43
16.17
19.33
21.91
23.93
25.53
26.89
28.19
29.45
30.47
30.83
29.86
26.91
21.58
13.89
4.32
-6.37
-17.44
-28.34
-38.86
-48.82
-57.84
-65.13
-69.66
-70.56
-67.56
-61.23
-52.84
-43.84
-35.37
-27.92
-21.43
-15.63
-10.40
-5.95
-2.68
-0.97
-0.84
-2.00
-3.98
-6.32
-8.77
-11.32
-14.10
-17.18
-20.41
-23.43
-25.63
-26.46
-25.60
-23.08
-19.35
-15.09
-11.05
-7.80
-5.69
-4.81
-5.07
-6.21
-7.78
-9.24
-10.02
-9.79
-8.56
-6.78
-5.10
-4.22
-4.56
-6.18
-8.63
-11.13
-12.72
-12.62
-10.51
-6.73
-2.19
1.98
4.93
6.49
7.15
7.77
9.04
11.12
13.70
16.17
18.05
19.17
19.67
19.72
19.43
18.79
17.80
16.61
15.56
15.11
15.61
17.17
19.51
22.06
24.09
24.99
24.44
22.58
19.87
16.90
14.25
12.30
11.19
10.91
11.35
12.28
13.35
14.17
14.33
13.63
12.17
10.29
8.42
6.94
5.96
5.42
5.13
4.89
4.60
4.22
3.74
3.16
2.47
1.67
0.80
-0.08
-0.94
-1.74
-2.40
-2.83
-2.96
-2.74
-2.32
-1.98
-2.11
-3.12
-5.19
-8.30
-12.13
-16.21
-20.03
-23.23
-25.63
-27.24
-28.21
-28.73
-28.98
-29.07
-29.02
-28.82
-28.52
-28.20
-27.91
-27.54
-26.75
-25.12
-22.36
-18.64
-14.60
-11.09
-8.63
-7.08
-5.62
-3.15
1.07
7.09
14.09
20.95
26.68
30.76
33.20
34.29
34.34
33.58
32.25
30.62
29.06
27.86
27.15
26.87
26.79
26.62
26.12
25.12
23.54
21.44
19.02
16.63
14.66
13.43
13.01
13.22
13.70
14.01
13.85
13.00
11.39
9.09
6.26
3.16
0.08
-2.75
-5.25
-7.54
-9.82
-12.27
-14.92
-17.58
-20.03
-22.09
-23.70
-24.94
-25.89
-26.56
-26.88
-26.77
-26.15
-25.09
-23.66
-22.00
-20.15
-18.15
-16.03
-13.88
-11.83
-10.08
-8.81
-8.16
-8.10
-8.44
-8.76
-8.59
-7.46
-5.14
-1.60
2.85
7.69
12.24
15.83
17.90
18.17
16.67
13.70
9.73
5.22
0.50
-4.23
-8.92
-13.50
-17.87
-21.81
-25.07
-27.41
-28.71
-29.01
-28.51
-27.54
-26.38
-25.17
-23.86
-22.31
-20.44
-18.29
-16.06
-13.92
-11.91
-9.77
-7.10
-3.54
0.94
6.05
11.20
15.88
19.92
23.47
26.93
30.56
34.36
37.93
40.77
42.47
42.94
42.44
41.43
40.36
39.49
38.87
38.44
38.01
37.41
36.48
35.09
33.16
30.69
27.78
24.60
21.36
18.23
15.28
12.42
9.45
6.17
2.51
-1.33
-4.92
-7.72
-9.31
-9.54
-8.62
-6.95
-4.95
-2.87
-0.74
1.55
4.09
6.88
9.75
12.41
14.62
16.26
17.39
18.14
18.65
18.98
19.10
18.94
18.32
16.87
13.93
8.57
-0.05
-12.20
-27.16
-43.18
-57.79
-68.63
-74.17
-74.21
-69.75
-62.54
