1478991894.00
64.000000
-0.00
-0.00
-0.00
-0.00
-0.00
-0.00
-0.00
-0.00
-0.00
-0.00
0.00
0.01
0.01
-0.00
-0.03
-0.05
-0.05
0.00
0.13
0.36
0.66
1.01
1.37
1.72
2.06
2.40
2.79
3.24
3.80
4.42
5.06
5.66
6.20
6.68
7.15
7.68
8.31
9.15
10.10
11.07
11.94
12.65
13.27
13.94
14.90
16.30
18.37
20.92
23.69
26.36
28.74
30.87
33.04
35.65
39.06
43.68
49.20
55.14
60.91
66.15
70.87
75.50
80.73
87.10
95.19
104.56
114.45
123.95
132.43
139.82
146.66
154.26
161.40
170.45
182.17
196.74
212.92
227.63
236.27
233.96
217.29
185.53
141.38
89.05
33.09
-23.31
-78.97
-134.18
-189.54
-244.90
-299.12
-350.17
-396.41
-436.71
-470.50
-497.50
-517.22
-528.79
-530.82
-522.05
-501.76
-470.56
-430.28
-383.83
-334.55
-285.71
-240.92
-202.73
-172.86
-151.79
-138.48
-129.88
-121.18
-107.05
-83.39
-48.95
-5.76
41.43
87.03
126.44
157.20
178.95
192.57
199.20
199.80
195.33
187.04
176.60
165.88
156.33
148.56
142.17
136.13
129.50
121.87
113.52
105.18
97.60
91.14
85.66
80.57
75.16
68.95
61.90
54.40
47.13
40.79
35.86
32.42
30.16
28.50
26.88
24.94
22.62
20.08
17.63
15.52
13.90
12.78
12.08
11.59
11.08
10.33
9.21
7.79
6.29
4.96
3.98
3.39
3.08
2.89
2.76
2.73
2.86
3.08
3.20
3.02
2.54
1.96
1.65
1.92
2.80
4.10
5.53
6.89
8.23
9.69
11.30
12.85
13.97
14.32
13.82
12.63
11.10
9.58
8.28
7.20
6.13
4.93
3.57
2.21
1.06
0.33
0.19
0.61
1.31
1.63
1.09
-0.39
-2.29
-3.89
-4.63
-4.22
-2.89
-1.17
0.15
0.87
1.40
2.72
5.77
11.17
19.35
30.29
43.38
56.92
68.80
76.96
80.30
79.07
73.31
64.37
53.77
45.51
40.95
39.68
38.68
35.52
28.78
18.22
4.96
-9.26
-22.48
-33.35
-40.86
-44.46
-44.02
-40.19
-34.30
-27.89
-22.60
-19.79
-20.59
-25.18
-32.73
-41.47
-49.35
-54.55
-55.80
-52.74
-45.84
-36.49
-26.36
-17.03
-9.54
-4.32
-1.14
0.75
2.25
4.03
6.27
8.72
10.91
12.47
13.21
13.21
12.82
12.51
12.72
13.71
15.57
18.25
21.62
25.50
29.63
33.68
37.23
39.87
41.33
41.68
41.38
41.21
42.05
44.60
49.15
55.45
62.78
70.01
75.78
78.67
77.53
71.81
61.79
48.60
33.93
19.51
6.66
-3.91
-12.03
-17.71
-20.89
-21.45
-19.38
-15.13
-9.67
-4.30
-0.30
1.51
0.91
-1.71
-5.53
-9.51
-12.68
-14.23
-13.75
-11.21
-7.10
-2.29
2.24
5.52
6.71
5.06
0.24
-7.39
-16.33
-24.31
-28.94
-28.71
-23.70
-15.42
-6.08
2.95
11.67
21.36
33.25
47.38
62.26
75.43
84.67
88.92
89.05
87.26
86.28
88.28
94.28
104.23
116.97
130.60
142.39
149.83
148.21
134.02
105.53
63.70
12.48
-42.07
-91.45
-131.48
-161.15
-181.56
-194.23
-200.37
-200.08
-192.62
-177.31
-154.02
-123.68
-88.10
-49.94
-12.26
21.55
47.96
65.40
72.60
69.20
56.03
35.51
10.81
-15.20
-39.48
-59.07
-70.91
-72.52
-62.82
-43.33
-18.10
7.26
27.91
41.46
48.27
50.37
49.41
45.56
37.40
23.20
2.08
-24.57
-53.37
-80.45
-102.74
-118.86
-128.90
-133.78
-134.38
-131.31
-124.93
-115.75
-105.12
-95.25
-88.97
-88.78
-95.24
-105.58
-113.54
-111.96
-94.76
-60.61
-14.14
35.61
78.79
108.68
123.70
125.70
119.89
111.74
104.38
98.37
92.93
87.31
81.68
76.63
72.60
69.78
68.03
67.05
67.34
70.41
78.15
91.36
107.94
122.96
129.17
120.04
92.88
50.70
1.49
-44.84
-80.04
-100.16
-106.46
-103.43
-95.76
-86.54
-76.79
-66.72
-56.79
-48.10
-41.80
-38.22
-36.49
-34.93
-31.92
-26.73
-19.98
-13.15
-7.82
-4.90
-4.15
-4.34
-3.83
-1.58
2.49
7.32
11.26
12.88
11.55
7.64
2.07
-4.05
-10.42
-16.94
-23.98
-32.24
-42.71
-56.56
-74.54
-95.98
-116.90
-131.86
-134.46
-120.27
-89.36
-47.16
-2.81
34.36
58.52
68.86
68.77
63.65
57.95
53.99
52.54
54.14
59.64
69.34
81.45
91.16
92.40
80.31
54.03
18.13
-18.89
-48.10
-63.73
-64.78
-55.30
-41.20
-27.34
-15.94
-7.03
0.12
5.65
9.08
9.85
8.07
5.04
2.50
2.05
4.08
7.70
11.17
12.76
11.59
8.04
3.77
0.85
0.76
3.62
8.10
12.06
13.51
11.65
7.18
2.19
-1.10
-1.24
1.59
5.67
8.53
7.77
1.73
-10.27
-27.40
-47.10
-65.15
-76.46
-76.70
-64.30
-41.67
-14.29
10.33
26.77
33.67
33.51
30.51
27.99
26.75
25.39
21.96
15.90
8.82
3.53
2.56
7.12
16.96
30.71
45.81
58.76
65.53
62.62
48.52
25.02
-2.76
-28.08
-45.22
-51.53
-48.52
-40.42
-31.40
-23.67
-17.10
-10.48
-3.18
4.02
9.28
10.97
8.77
3.98
-1.18
-4.36
-4.32
-1.18
3.69
8.30
10.80
10.35
7.29
2.98
-0.75
-2.46
-1.67
1.14
4.58
7.08
7.51
5.31
0.18
-8.28
-20.41
-35.51
-51.00
-62.49
-65.12
-55.84
-35.46
-8.88
16.70
34.28
40.64
37.07
28.03
18.50
11.76
8.50
7.47
6.99
6.02
4.58
3.21
2.39
2.32
3.01
4.52
7.61
13.53
23.18
35.88
48.69
56.80
55.47
42.48
19.71
-7.09
-30.71
-45.27
-48.79
-43.44
-33.62
-23.35
-14.61
-7.45
-1.24
4.12
7.76
8.58
6.27
1.92
-2.37
-4.40
-3.00
1.30
6.57
10.43
11.07
8.25
3.36
-1.22
-3.38
-2.18
1.62
5.99
8.63
7.79
2.56
-7.16
-20.71
-36.34
-51.00
-60.72
-61.69
-52.04
-33.09
-9.38
13.10
28.81
35.43
34.03
27.77
19.90
12.51
6.32
1.37
-2.05
-3.39
-2.23
0.86
4.43
6.57
6.19
3.32
-0.66
-3.56
-3.01
2.93
14.87
31.29
48.31
60.39
62.26
51.26
29.03
1.32
-24.13
-40.76
-45.82
-41.19
-31.51
-21.38
-13.30
-7.39
-2.70
1.46
4.63
5.81
4.50
1.43
-1.68
-3.12
-1.98
1.13
4.58
6.58
6.13
3.51
0.17
-2.15
-2.25
-0.13
3.02
5.44
5.32
1.27
-7.36
-19.97
-34.34
-46.72
-52.76
-49.18
-35.42
-14.32
8.66
27.65
38.53
40.47
35.71
27.73
19.30
11.83
5.54
0.48
-2.84
-3.71
-1.84
1.91
5.81
7.87
7.04
3.56
-0.98
-4.37
-4.33
0.87
11.68
26.58
41.71
51.88
52.10
40.00
17.34
-10.06
-34.53
-49.63
-52.48
-45.07
-32.33
-19.35
-9.17
-2.24
2.50
6.17
9.15
11.10
11.70
11.23
10.47
10.14
10.61
11.58
12.37
12.56
12.14
11.30
10.46
9.76
8.88
7.20
3.77
-2.57
-12.84
-27.38
-45.07
-62.76
-75.74
-79.32
-71.02
-51.62
-26.50
-2.41
15.14
23.83
24.90
21.49
16.69
11.98
7.47
2.89
-1.25
-3.70
-3.27
0.06
4.76
8.55
9.41
6.64
1.34
-4.12
-7.09
-5.39
2.17
15.32
31.97
48.16
58.82
59.42
48.01
26.59
0.74
-22.37
-36.87
-40.51
-35.30
-25.67
-15.83
-7.98
-2.19
2.43
6.36
9.11
9.83
8.22
5.19
2.43
1.37
2.60
5.28
7.84
8.78
7.53
4.77
1.90
0.54
1.41
4.10
7.20
8.79
6.93
0.21
-11.58
-26.72
-41.44
-50.77
-50.37
-38.71
-18.24
5.19
24.79
35.60
36.56
30.58
22.24
15.13
10.29
6.48
1.91
-3.96
-9.84
-13.46
-13.11
-8.90
-2.79
2.33
4.06
1.59
-3.89
-9.88
-13.73
-13.52
-8.47
1.33
14.96
30.52
44.85
53.84
53.67
42.53
22.18
-2.17
-23.69
-36.63
-38.82
-32.41
-22.08
-12.37
-5.60
-1.51
1.50
4.89
8.84
12.42
14.39
14.18
12.09
9.08
6.51
5.32
5.99
8.12
10.84
12.96
13.47
11.84
7.90
1.42
-8.14
-21.08
-36.62
-52.13
-63.31
-65.67
-56.81
-38.05
-14.15
7.63
21.78
26.54
24.06
18.56
13.81
11.24
9.88
7.92
4.26
-0.32
-3.84
-4.38
-1.34
4.15
9.86
13.24
13.00
9.24
3.74
-1.11
-3.30
-1.81
3.47
12.16
23.61
36.56
48.50
56.04
55.65
45.55
27.09
4.99
-14.37
-25.64
-26.40
-18.50
-6.13
6.57
17.40
26.45
34.67
42.60
49.48
53.69
53.91
50.05
43.33
35.57
28.53
22.74
17.63
11.72
3.41
-8.23
-22.85
-38.73
-53.28
-63.89
-68.96
-68.07
-62.28
-53.64
-44.42
-36.25
-29.70
-24.33
-19.27
-14.27
-9.61
-6.58
-6.95
-12.19
-22.91
-38.82
-58.98
-80.85
-102.52
-120.43
-130.12
-127.59
-111.23
-83.26
-49.44
-17.12
7.75
22.45
28.30
28.67
26.68
23.61
19.12
12.59
4.51
-3.09
-7.95
-8.67
-5.88
-2.10
-0.15
-2.00
-7.38
-14.13
-18.92
-18.70
-11.38
3.74
25.67
51.49
76.51
95.03
101.96
94.99
75.99
50.37
26.31
10.20
4.19
5.92
10.61
13.97
14.37
13.03
12.35
13.94
17.39
20.65
21.47
18.81
13.20
6.58
1.41
-0.59
0.90
4.79
9.10
11.94
12.44
10.62
7.07
2.20
-3.93
-10.92
-17.17
-19.70
-15.11
-1.46
19.82
44.06
64.77
76.35
76.30
65.87
48.86
29.28
10.84
-4.93
-17.77
-27.71
-34.66
-38.60
-40.06
-40.23
-40.37
-41.21
-42.89
-44.66
-45.55
-45.02
-43.36
-41.31
-39.78
-39.11
-38.77
-37.68
-34.26
-26.76
-13.71
5.27
28.67
52.62
71.52
79.87
74.70
57.37
33.08
9.90
-5.78
-11.66
-9.82
-4.65
0.01
2.74
4.69
7.66
12.40
17.61
20.87
20.32
15.90
9.57
4.22
2.41
5.00
10.86
17.38
21.70
21.78
16.69
6.57
-7.53
-23.39
-37.66
-46.26
-45.75
-34.98
-16.28
4.97
22.34
30.97
29.68
21.25
10.39
1.12
-4.95
-8.70
-12.14
-16.58
-21.82
-26.33
-28.42
-27.33
-23.65
-18.99
-15.43
-14.48
-16.41
-20.48
-25.00
-28.23
-28.99
-26.84
-21.67
-13.30
-1.48
13.26
28.67
40.83
45.20
38.78
22.20
0.08
-20.62
-33.47
-35.41
-28.04
-15.97
-4.13
4.53
9.76
13.06
15.94
18.91
21.43
22.48
21.55
18.87
15.32
12.20
10.48
10.64
12.34
14.87
17.19
18.48
18.38
16.85
13.64
8.06
-0.65
-12.19
-24.29
-32.95
-33.82
-24.45
-6.20
15.81
34.63
44.55
43.36
33.44
19.74
7.02
-2.27
-8.40
-13.09
-17.96
-23.22
-27.77
-30.14
-29.60
-26.55
-22.38
-19.05
-18.02
-19.72
-23.48
-27.72
-30.60
-30.84
-27.83
-21.43
-11.46
2.16
18.60
35.42
48.49
53.26
46.91
30.27
8.13
-12.67
-25.68
-28.40
-22.73
-13.26
-4.51
1.30
4.64
7.32
10.77
14.96
18.46
19.62
17.70
13.34
8.21
4.47
3.56
5.63
9.73
14.05
16.84
17.16
14.96
10.54
4.03
-4.70
-15.26
-25.75
-32.88
-32.91
-23.58
-5.91
15.64
34.74
45.92
46.54
38.22
25.11
11.62
0.58
-7.35
-12.81
-16.74
-19.54
-21.19
-21.63
-21.16
-20.31
-19.54
-19.15
-19.06
-19.12
-19.28
-19.52
-19.90
-20.40
-20.79
-20.66
-19.35
-15.69
-8.19
4.29
21.30
40.02
55.43
61.98
56.14
38.67
14.81
-7.80
-21.98
-24.72
-17.83
-6.29
4.75
12.28
16.27
18.50
20.76
23.75
26.86
28.97
29.34
28.05
25.68
23.41
22.12
22.13
22.90
23.46
22.58
19.30
13.21
4.20
-7.70
-22.76
-41.16
-61.97
-82.32
-97.53
-102.65
-94.09
-73.46
-46.24
-19.97
-1.06
7.83
8.24
4.38
0.43
-1.55
-2.05
-2.73
-4.97
-8.75
-12.72
-15.19
-15.16
-12.88
-9.56
-7.11
-6.97
-9.43
-13.73
-18.17
-20.89
-20.58
-16.70
-9.10
2.36
17.70
36.18
55.32
70.81
77.74
72.85
56.61
33.32
10.58
-4.91
-10.11
-6.42
1.80
9.97
15.49
18.33
20.05
22.17
24.95
27.60
28.95
28.38
26.17
23.23
20.80
19.85
20.65
22.53
24.32
24.67
22.60
17.73
10.14
-0.30
-13.91
-30.91
-50.52
-69.95
-84.66
-89.82
-82.68
-63.80
-38.80
-14.99
1.55
8.26
6.68
0.85
-5.06
-8.77
-10.30
-11.01
-12.19
-14.18
-16.46
-18.12
-18.63
-17.98
-16.66
-15.54
-15.37
-16.54
-18.86
-21.74
-24.23
-25.40
-24.61
-21.48
-15.49
-5.74
8.51
26.97
47.18
64.41
73.15
69.54
53.71
29.95
6.14
-10.54
-16.54
-12.99
-4.22
4.90
11.37
14.75
16.25
17.31
18.47
19.34
19.34
18.19
16.21
13.99
12.31
11.53
11.74
12.69
13.91
15.05
15.80
16.05
15.77
14.70
12.02
6.44
-3.02
-15.80
-29.07
-38.30
-38.93
-28.84
-9.87
12.42
31.02
40.37
38.82
28.96
15.61
3.37
-5.30
-10.42
-13.46
-15.84
-18.12
-20.02
-20.93
-20.58
-19.09
-16.96
-14.94
-13.63
-13.39
-14.05
-15.16
-16.01
-15.98
-14.60
-11.56
-6.39
1.74
13.50
28.44
43.91
55.25
57.14
46.36
23.85
-4.99
-32.09
-50.10
-55.31
-48.80
-34.63
-18.44
-3.95
7.94
18.19
28.07
37.84
46.65
53.10
56.33
56.31
53.97
50.60
47.21
44.21
41.10
36.89
30.28
20.39
7.09
-9.05
-27.34
-47.45
-69.30
-92.07
-112.65
-127.04
-130.55
-120.29
-97.09
-65.93
-34.22
-8.90
6.11
11.20
9.37
4.55
-0.43
-4.46
-7.59
-10.06
-11.86
-12.80
-12.94
-13.06
-14.02
-16.30
-19.80
-23.71
-26.92
-28.77
-29.33
-29.08
-28.73
-28.54
-28.09
-26.40
-22.07
-13.39
1.23
22.51
49.32
77.93
102.41
116.30
115.35
99.11
73.11
45.79
24.93
14.64
14.28
19.87
26.78
32.05
35.02
36.58
37.69
38.51
38.68
37.96
36.72
35.82
35.94
37.25
39.22
40.86
41.24
39.98
37.14
33.22
28.59
23.21
16.56
7.73
-4.44
-21.14
-42.78
-68.00
-93.03
-112.27
-119.32
-111.31
-89.68
-60.18
-30.78
-8.34
3.99
7.36
5.63
2.82
1.05
0.35
-0.33
-1.75
-3.54
-4.54
-3.74
-1.12
2.33
5.07
5.83
4.34
1.35
-1.82
-3.91
-4.26
-3.09
-1.29
-0.02
-0.11
-1.72
-4.43
-7.47
-10.10
-11.90
-12.89
-13.43
-14.05
-15.15
-16.91
-19.31
-22.19
-25.37
-28.64
-31.82
-34.75
-37.33
-39.59
-41.71
-44.04
-46.89
-50.44
-54.40
-58.08
-60.49
-60.61
-57.78
-51.92
-43.51
-33.27
-22.06
-10.16
2.52
16.23
31.21
47.58
65.24
83.74
102.01
118.00
128.86
131.61
124.39
107.61
84.31
59.28
37.37
21.66
12.68
8.72
7.11
5.69
3.51
0.73
-2.13
-4.77
-7.32
-10.00
-12.75
-15.13
-16.49
-16.37
-14.83
-12.58
-10.60
-9.78
-10.50
-12.49
-15.01
-17.20
-18.40
-18.33
-17.12
-15.18
-13.13
-11.67
-11.36
-12.44
-14.53
-16.79
-18.21
-18.11
-16.60
-14.60
-13.49
-14.37
-17.52
-22.18
-27.00
-30.68
-32.58
-32.90
-32.50
-32.36
-33.06
-34.69
-36.84
-38.91
-40.34
-40.75
-39.83
-37.27
-32.90
-26.95
-20.25
-14.15
-10.09
-8.79
-9.73
-11.23
-11.15
-7.91
-1.28
7.68
17.14
25.32
31.15
34.36
35.26
34.32
31.98
28.59
24.74
21.07
18.09
15.93
14.33
12.79
10.98
9.02
7.68
8.59
13.76
24.92
42.73
66.16
92.41
117.77
138.79
151.93
156.16
152.96
145.48
136.97
129.28
122.48
115.61
107.72
98.68
89.56
81.74
76.21
73.09
71.36
69.68
66.99
62.85
57.52
51.92
47.04
43.46
41.00
38.70
34.49
26.64
14.47
-1.38
-18.94
-35.78
-49.85
-60.17
-67.85
-74.93
-83.74
-96.43
-114.78
-139.92
-171.99
-209.46
-244.75
-270.24
-278.90
-266.82
-235.26
-190.67
-142.32
-98.84
-65.37
-42.68
-29.11
-21.99
-19.46
-20.73
-25.26
-31.72
-37.82
-41.39
-41.37
-39.08
-37.11
-38.28
-44.18
-54.35
-66.45
-77.29
-84.46
-87.25
-86.99
-85.75
-85.30
-85.86
-85.88
-82.95
-73.54
-54.53
-23.99
18.18
69.68
125.29
177.25
216.13
234.54
230.26
207.20
174.09
140.91
115.12
99.41
92.07
89.18
87.27
84.66
81.18
77.24
72.96
68.15
62.44
56.13
49.82
44.30
39.96
36.10
30.90
21.78
6.92
-14.12
-38.52
-60.42
-72.73
-70.39
-53.08
-25.83
2.84
24.42
33.74
30.59
18.22
2.09
-13.41
-26.38
-36.78
-45.07
-51.11
-54.18
-53.57
-49.58
-43.39
-36.79
-31.56
-28.45
-27.12
-26.49
-25.44
-23.32
-20.30
-17.14
-14.81
-13.95
-14.34
-14.90
-13.86
-9.47
-0.71
11.93
26.17
38.34
44.68
42.89
33.23
18.41
2.48
-10.86
-19.69
-24.10
-25.63
-26.13
-26.90
-28.54
-31.26
-35.07
-39.58
-43.62
-45.14
-41.59
-31.09
-13.34
9.83
34.80
57.11
72.75
79.24
76.18
65.03
48.36
29.04
9.65
-7.68
-21.35
-29.67
-31.35
-26.12
-15.29
-1.70
11.05
19.83
22.95
20.49
13.76
4.34
-6.74
-19.08
-32.37
-45.67
-57.31
-65.56
-69.33
-68.84
-65.59
-61.77
-59.42
-59.41
-60.82
-61.56
-59.71
-55.16
-50.00
-47.13
-48.42
-52.89
-55.85
-51.23
-34.42
-4.11
37.35
85.44
135.79
184.63
228.78
263.03
282.31
282.75
263.59
228.40
182.64
135.57
96.07
69.29
55.28
50.46
49.94
49.88
48.11
44.12
38.87
33.25
27.83
22.88
18.57
14.87
11.13
5.96
-3.93
-21.60
-48.50
-82.88
-119.02
-148.40
-162.90
-156.72
-131.75
-96.87
-63.45
-40.67
-32.18
-35.61
-44.96
-54.16
-59.69
-60.78
-58.13
-52.50
-45.06
-38.72
-38.48
-49.92
-76.03
-115.15
-160.06
-200.40
-226.74
-233.89
-222.47
-196.58
-160.49
-116.34
-64.56
-5.76
57.47
120.20
176.31
219.67
245.75
252.18
238.96
208.36
165.08
116.20
68.94
31.75
10.08
4.87
13.16
30.01
50.32
69.98
86.21
97.12
101.88
100.36
93.76
84.25
74.01
64.75
55.55
43.57
24.76
-4.36
-44.90
-93.70
-143.05
-181.14
-198.16
-190.47
-162.41
-124.61
-89.28
-65.59
-56.49
-58.88
-66.66
-74.39
-78.69
-78.01
-71.80
-60.19
-44.90
-31.06
-25.28
-33.47
-57.09
-90.70
-122.72
-140.10
-134.10
-103.90
-56.55
-2.92
46.91
86.87
115.21
132.57
140.02
138.83
131.68
122.93
117.75
119.45
127.43
136.54
139.32
129.89
105.95
72.46
39.09
15.72
7.98
15.39
32.76
53.08
70.60
82.56
89.06
91.38
90.65
87.48
82.03
74.23
64.30
51.40
34.09
10.52
-21.11
-61.28
-107.62
-154.33
-191.68
-211.01
-208.42
-186.69
-154.30
-121.88
-98.01
-86.13
-84.50
-88.33
-93.24
-96.95
-99.39
-101.62
-104.41
-107.40
-109.12
-107.74
-101.61
-90.63
-75.03
-55.37
-32.73
-8.23
17.17
42.87
68.40
93.17
116.16
136.58
154.68
171.25
187.01
201.37
211.67
213.58
202.97
178.17
140.10
95.77
54.57
24.40
8.87
6.91
14.54
27.31
41.79
55.80
68.01
76.79
80.44
78.26
71.19
61.49
51.63
43.41
36.05
27.28
13.88
-7.17
-37.63
-77.17
-122.77
-167.75
-204.09
-224.61
-225.20
-206.86
-175.54
-139.92
-108.03
-84.56
-70.07
-62.50
-59.47
-59.67
-62.99
-69.52
-77.92
-85.24
-87.99
-83.66
-72.10
-55.52
-37.73
-21.85
-9.45
-0.15
8.21
18.92
35.31
59.55
91.06
125.84
157.01
176.67
178.86
162.33
131.40
93.80
59.38
35.60
24.97
25.39
32.50
42.52
53.75
66.19
79.90
93.61
104.62
109.94
108.06
99.90
88.26
76.61
67.41
61.15
55.79
47.88
33.67
10.33
-23.18
-65.05
-110.25
-150.25
-176.27
-181.99
-166.32
-134.41
-95.90
-61.50
-38.93
-30.49
-33.25
-41.39
-48.78
-51.12
-46.82
-37.10
-25.81
-18.62
-21.58
-39.02
-72.07
-116.69
-164.68
-205.56
-229.57
-230.53
-207.30
-163.87
-107.88
-48.61
5.49
48.73
79.46
99.95
114.64
127.71
140.39
151.23
156.49
152.89
140.04
120.77
101.15
87.03
81.41
83.47
90.10
98.21
106.55
115.74
126.72
138.91
149.20
153.26
147.92
133.17
112.29
90.44
71.63
57.06
44.57
29.63
7.35
-25.43
-68.89
-119.39
-170.89
-215.88
-246.97
-259.04
-251.13
-227.12
-194.62
-162.27
-136.73
-120.69
-112.53
-107.86
-102.30
-93.41
-81.81
-70.71
-64.76
-66.62
-76.06
-89.32
-99.98
-101.57
-89.81
-64.63
-29.45
10.58
50.83
88.45
122.65
153.73
181.45
204.17
218.88
222.12
211.37
186.50
150.64
109.62
72.25
46.43
36.05
39.86
52.79
68.83
83.45
94.82
103.20
109.42
113.36
114.12
110.72
103.10
92.03
78.90
64.26
47.49
26.97
0.21
-34.63
-76.96
-122.68
-163.91
-192.21
-201.78
-192.23
-169.05
-141.58
-119.04
-106.72
-104.71
-109.07
-115.08
-119.83
-123.22
-126.78
-131.76
-138.06
-143.35
-144.50
-138.87
-125.30
-103.29
-73.35
-37.24
1.40
37.06
64.30
80.02
85.56
86.41
89.61
100.30
119.35
143.62
167.98
187.94
200.69
204.66
198.20
179.61
148.65
107.76
64.52
28.71
8.39
6.51
20.33
43.03
66.85
86.04
97.92
102.53
101.33
96.15
88.56
79.77
70.45
59.74
46.37
28.53
4.38
-27.49
-67.05
-111.72
-155.43
-190.44
-209.68
-209.54
-191.91
-163.78
-134.67
-112.80
-102.13
-101.57
-106.86
-113.39
-118.34
-121.58
-124.86
-129.44
-135.12
-140.04
-141.30
-136.38
-124.16
-104.66
-79.38
-50.53
-20.10
10.42
40.39
69.58
97.63
123.72
147.20
167.73
185.58
201.09
213.56
220.53
218.33
203.91
176.13
139.23
100.93
69.40
50.09
44.04
48.42
58.78
71.31
83.82
95.53
105.60
112.42
114.28
110.48
101.95
90.82
79.73
69.76
60.32
49.25
33.70
11.15
-19.77
-58.54
-101.82
-143.82
-177.29
-195.23
-193.64
-173.45
-140.57
-103.93
-72.01
-50.27
-39.25
-36.35
-37.92
-41.34
-45.75
-51.22
-57.68
-64.19
-69.31
-72.29
-73.85
-75.82
-80.14
-87.98
-98.86
-111.02
-122.34
-131.44
-138.52
-145.03
-152.79
-162.88
-174.80
-186.32
-193.89
-193.51
-180.95
-153.18
-109.82
-54.20
6.44
62.64
105.85
131.58
141.35
141.88
141.58
146.53
158.20
173.62
187.93
197.51
201.23
200.36
197.11
192.90
187.92
181.69
173.88
164.84
155.51
146.91
139.72
134.14
129.60
124.78
118.46
109.68
98.04
83.80
66.92
46.92
22.43
-8.32
-46.01
-88.59
-130.74
-164.63
-183.46
-184.59
-170.94
-149.97
-130.54
-119.49
-119.36
-128.70
-143.46
-159.36
-172.59
-179.68
-177.21
-163.09
-137.62
-104.91
-72.86
-50.52
-44.13
-54.40
-74.95
-94.37
-100.26
-83.44
-40.86
23.63
100.27
175.88
237.09
273.65
280.70
259.95
219.24
169.35
122.79
89.01
72.09
70.55
79.73
94.11
109.43
123.15
133.90
140.27
140.35
132.75
116.19
90.71
57.19
16.97
-27.87
-74.19
-117.25
-151.06
-170.80
-174.97
-166.22
-150.65
-135.34
-125.75
-124.05
-129.20
-138.57
-149.82
-161.51
-172.92
-183.23
-191.23
-195.66
-196.05
-192.26
-184.47
-172.94
-157.04
-135.35
-106.49
-69.95
-27.01
19.55
65.98
108.62
144.60
172.44
192.06
204.67
212.70
218.71
224.19
228.48
228.45
219.52
198.13
164.22
121.60
78.76
44.85
25.88
22.74
31.86
47.73
65.65
82.89
98.30
111.33
120.85
125.27
123.82
117.30
107.79
97.78
89.29
81.77
73.14
60.20
39.71
9.41
-31.02
-79.11
-128.95
-172.30
-201.02
-209.67
-198.17
-172.14
-140.90
-113.84
-96.93
-91.13
-93.31
-98.85
-104.41
-108.85
-113.06
-118.44
-125.71
-134.42
-143.22
-150.78
-156.23
-159.00
-158.92
-155.86
-149.80
-140.38
-127.13
-109.73
-88.14
-62.77
-34.42
-4.09
27.56
60.58
95.08
130.19
163.11
189.07
202.73
200.69
183.56
156.24
127.35
105.48
95.95
99.35
112.46
130.55
149.49
166.50
180.14
189.45
193.33
191.06
183.01
170.68
156.24
141.92
127.92
112.75
93.77
67.71
31.81
-14.97
-70.71
-129.59
-182.86
-221.51
-239.34
-235.66
-216.01
-190.05
-167.68
-155.21
-153.86
-160.21
-169.44
-177.98
-184.98
-191.65
-199.39
-208.06
-215.36
-217.52
-211.31
-194.74
-167.86
-132.67
-92.23
-49.52
-6.82
34.63
74.13
110.89
143.76
171.56
193.95
211.57
225.45
235.72
240.60
236.54
219.99
190.12
150.00
107.58
72.55
52.45
49.89
62.38
84.17
108.92
132.01
150.91
164.56
172.42
174.19
169.87
160.30
147.21
131.46
113.39
92.11
65.66
31.25
-13.36
-67.97
-128.15
-185.51
-230.09
-253.91
-254.55
-236.44
-209.37
-184.48
-169.83
-167.69
-175.07
-186.31
-196.33
-203.06
-206.89
-209.24
-210.81
-210.82
-206.70
-195.50
-175.03
-144.27
-103.63
-54.85
-1.41
51.44
97.11
129.13
143.57
140.99
126.86
109.94
99.10
100.08
113.89
136.61
161.09
179.31
184.80
174.45
149.44
115.03
78.49
48.05
29.91
26.40
36.03
55.08
79.46
105.90
131.76
154.33
170.85
178.91
177.63
168.70
156.00
143.88
135.51
131.62
129.14
123.19
108.72
82.22
42.63
-8.33
-66.17
-123.94
-173.43
-207.48
-222.11
-218.24
-201.44
-179.99
-161.63
-150.77
-147.58
-149.24
-152.12
-153.70
-153.50
-152.96
-154.56
-160.79
-172.46
-187.31
-200.50
-205.95
-198.82
-178.21
-147.78
-114.03
-82.98
-56.90
-33.75
-9.50
18.69
50.27
81.79
109.37
130.71
145.50
154.09
155.79
148.78
131.86
106.61
77.95
53.70
41.05
43.73
60.95
88.39
120.27
151.37
177.83
197.06
207.92
210.50
206.19
197.51
187.48
178.25
170.49
163.58
154.48
139.35
114.45
77.57
29.42
-25.56
-79.66
-123.75
-150.61
-158.32
-150.99
-137.15
-126.04
-123.76
-131.37
-145.57
-161.32
-174.84
-185.27
-193.97
-203.03
-213.74
-225.12
-234.62
-239.26
-236.85
-226.23
-207.75
-182.54
-152.11
-117.78
-80.47
-40.88
0.08
40.95
79.92
115.24
146.10
172.46
194.15
209.96
217.05
211.97
192.62
160.42
120.42
81.34
52.02
38.18
40.83
56.79
80.91
108.17
134.79
158.01
175.97
187.23
191.04
188.16
180.63
171.28
162.30
154.87
147.40
136.73
118.91
90.30
49.18
-3.02
-61.05
-116.41
-159.68
-184.17
-188.50
-177.41
-159.78
-144.75
-138.08
-140.51
-148.80
-158.57
-167.45
-175.53
-184.77
-196.96
-211.89
-226.96
-238.27
-242.18
-237.21
-223.84
-204.02
-179.90
-152.94
-123.30
-90.34
-53.51
-13.14
29.46
72.57
114.75
154.41
189.22
215.46
228.48
224.47
202.86
167.78
127.34
91.89
69.84
64.87
75.36
96.10
121.06
145.56
166.72
183.32
194.88
201.03
201.75
197.76
190.31
180.66
170.21
158.32
142.81
120.40
87.77
43.58
-9.71
-65.44
-114.16
-147.07
-160.05
-155.34
-140.65
-125.93
-119.20
-123.77
-137.96
-157.00
-175.85
-191.68
-203.63
-212.22
-218.19
-221.61
-221.98
-218.58
-210.28
-195.98
-174.85
-145.77
-107.91
-61.64
-9.56
42.62
86.76
114.55
120.37
104.02
71.71
34.28
3.56
-11.68
-8.54
9.67
35.26
59.28
74.39
77.00
67.65
50.22
30.36
14.25
6.86
10.81
26.09
50.40
80.02
110.74
138.58
160.62
175.35
182.85
184.57
182.64
179.18
175.74
172.89
170.32
167.43
163.82
159.26
153.72
147.58
140.02
129.75
115.04
93.86
64.14
24.58
-24.08
-77.74
-128.84
-168.53
-189.54
-189.48
-172.03
-145.77
-120.62
-104.03
-98.45
-101.67
-109.35
-117.32
-123.69
-129.02
-135.13
-143.64
-155.05
-168.45
-182.39
-195.42
-206.54
-215.64
-223.21
-229.88
-235.65
-239.67
-239.48
-231.68
-213.11
-181.62
-136.65
-79.09
-11.03
63.76
139.03
205.71
253.06
272.21
260.51
224.13
176.94
135.35
111.65
109.28
122.51
140.56
153.61
157.18
152.71
144.99
138.29
134.27
132.04
129.88
126.61
121.76
114.78
104.02
86.95
61.51
27.74
-11.12
-49.18
-79.88
-98.26
-102.47
-94.01
-76.47
-53.91
-29.56
-5.58
16.65
35.97
51.00
60.32
62.63
56.72
41.42
15.84
-19.74
-62.87
-108.38
-149.13
-178.05
-190.67
-186.80
-170.28
-146.97
-122.00
-97.80
-74.46
-51.28
-28.73
-9.13
4.42
10.29
10.14
8.82
12.25
24.43
45.34
70.79
94.02
108.72
111.47
102.88
87.08
69.99
57.12
51.87
54.88
64.25
76.85
89.71
100.94
109.84
116.27
119.77
119.28
113.55
102.07
85.80
67.29
49.81
36.37
28.85
27.68
31.73
38.57
44.82
46.40
39.43
21.04
-9.25
-48.70
-91.39
-129.67
-156.61
-168.50
-166.53
-155.81
-144.37
-140.19
-148.61
-171.11
-205.74
-248.61
-295.40
-342.89
-387.82
-426.77
-456.23
-473.27
-476.50
-466.56
-445.80
-417.08
-383.32
-346.43
-307.33
-266.20
-222.91
-177.72
-131.36
-84.96
-39.67
3.65
44.79
83.81
120.91
156.07
188.83
218.54
244.59
266.83
285.92
303.62
322.25
343.77
368.54
394.57
417.78
433.16
436.61
426.66
404.97
375.55
343.24
312.29
285.45
263.80
246.70
231.99
216.74
198.12
174.48
146.29
116.45
88.96
68.30
57.82
58.73
70.38
90.84
117.56
147.70
178.28
206.31
229.19
245.20
253.68
255.36
252.08
245.95
238.70
231.10
222.97
213.42
202.96
190.81
176.18
158.85
138.91
116.70
92.61
66.92
39.60
10.62
-20.30
-53.23
-87.80
-123.69
-160.59
-198.33
-236.98
-277.07
-319.13
-363.62
-409.08
-452.64
-490.53
-518.28
-531.39
-524.04
-492.70
-436.67
-358.37
-267.12
-171.61
-79.41
3.88
75.58
133.50
175.28
198.69
202.10
184.26
145.08
85.02
5.32
-91.38
-198.60
-306.83
-404.04
-477.61
-518.65
-524.44
-499.70
-454.58
-400.69
-347.37
-299.82
-261.72
-232.26
-209.89
-193.40
-181.98
-174.36
-168.32
-160.90
-149.41
-132.17
-108.64
-79.71
-47.58
-14.73
16.99
46.93
75.69
104.47
134.54
166.96
201.85
238.65
276.44
313.83
348.66
377.81
397.52
404.46
397.04
376.17
345.13
308.67
271.15
235.22
201.54
169.65
139.49
112.31
90.82
77.64
74.80
82.65
100.46
126.49
158.75
195.08
233.18
270.15
301.89
323.56
330.14
317.35
282.59
226.05
151.69
67.17
-17.30
-92.03
-150.21
-190.39
-216.85
-237.17
-258.45
-284.24
-314.38
-345.29
-372.86
-394.52
-409.69
-419.13
-423.63
-422.65
-415.31
-401.00
-379.68
-352.08
-319.57
-283.67
-245.81
-206.86
-167.10
-126.65
-85.59
-44.03
-2.37
38.95
79.90
121.14
163.83
208.41
253.08
293.00
321.10
330.29
316.38
280.40
228.65
170.94
117.35
75.48
49.13
38.70
42.41
57.61
81.45
110.94
142.97
174.60
203.65
228.92
250.03
267.01
279.87
288.28
291.70
289.89
283.12
272.41
259.23
244.73
229.46
213.16
194.94
173.44
146.99
113.69
72.74
25.41
-24.31
-70.09
-105.33
-125.75
-131.12
-125.93
-118.08
-115.66
-124.51
-147.18
-183.15
-230.94
-288.79
-354.62
-425.29
-496.95
-563.15
-615.84
-647.30
-652.34
-630.61
-586.86
-529.44
-466.01
-402.31
-339.15
-272.90
-198.29
-111.92
-15.53
84.48
179.58
262.44
329.38
381.03
420.42
450.61
473.17
487.52
492.64
488.43
476.10
458.54
439.56
422.28
408.04
397.66
387.86
373.61
349.98
312.99
260.14
191.08
107.92
15.14
-78.44
-162.65
-228.69
-272.11
-294.56
-303.26
-307.42
-314.90
-329.48
-350.15
-372.90
-393.44
-407.10
-410.64
-403.02
-385.52
-361.16
-333.42
-304.39
-273.06
-236.57
-191.20
-134.85
-68.83
2.21
71.88
134.41
186.33
226.21
253.95
270.34
276.46
273.81
264.67
251.73
237.37
223.54
210.82
199.07
188.43
179.51
172.86
169.20
168.51
169.77
171.33
171.89
168.83
159.38
141.36
113.92
78.68
39.59
2.00
-29.56
-52.81
-69.34
-83.91
-101.57
-124.86
-151.68
-176.77
-195.62
-205.98
-211.23
-217.13
-228.23
-244.43
-260.25
-267.02
-256.33
-225.70
-178.79
-124.09
-70.59
-24.16
13.88
45.39
72.77
96.86
116.21
128.53
132.24
127.97
118.52
108.17
100.72
97.91
99.64
104.16
109.43
114.17
117.88
120.62
122.16
121.64
117.65
110.20
101.39
94.88
93.81
98.72
105.76
109.07
102.56
83.01
51.62
13.16
-26.62
-63.45
-95.34
-121.91
-142.72
-157.02
-164.52
-166.86
-167.89
-172.93
-185.94
-206.74
-229.65
-245.01
-242.48
-217.40
-171.88
-113.64
-52.82
1.92
45.85
78.49
101.93
118.88
131.22
140.17
146.75
151.89
156.39
160.68
164.37
165.08
159.72
145.69
123.26
96.23
70.77
52.74
44.65
44.76
47.12
44.87
33.35
12.18
-15.16
-43.62
-69.27
-90.50
-107.53
-121.39
-132.30
-139.59
-142.97
-143.99
-145.98
-153.18
-168.19
-189.62
-211.61
-225.35
-221.75
-197.20
-153.99
-99.29
-42.07
10.14
53.00
85.17
107.30
120.62
126.44
126.84
124.22
121.10
119.46
120.37
123.54
127.97
132.09
133.73
131.59
125.90
118.41
112.55
111.89
118.08
129.38
140.61
144.38
135.91
114.03
81.63
44.10
6.82
-26.91
-56.17
-81.76
-104.51
-123.94
-138.91
-148.09
-150.89
-148.62
-144.87
-144.48
-151.89
-168.89
-192.41
-215.15
-227.81
-221.76
-194.60
-150.18
-96.79
-43.69
2.26
38.14
64.45
83.26
96.57
105.35
110.28
112.13
112.09
111.60
111.78
112.79
113.70
113.09
110.19
106.54
105.26
110.00
122.44
140.51
158.21
167.91
162.80
141.78
108.58
69.73
31.46
-2.76
-32.45
-59.04
-83.86
-106.61
-125.61
-139.24
-146.66
-147.90
-144.21
-137.41
-130.14
-125.67
-126.71
-133.53
-143.38
-150.62
-148.18
-131.92
-102.20
-63.97
-24.48
10.12
37.26
57.97
75.12
91.08
106.03
118.42
126.50
129.49
127.86
122.59
115.06
106.21
97.49
91.03
89.05
92.37
99.14
104.59
103.48
92.07
70.22
41.47
11.23
-15.84
-37.81
-55.66
-71.32
-86.27
-100.60
-113.06
-122.55
-128.86
-132.45
-133.65
-132.59
-128.69
-122.01
-114.47
-109.08
-108.35
-112.24
-116.82
-116.43
-105.80
-82.78
-49.82
-12.85
21.74
49.55
69.35
82.25
90.13
94.47
96.12
95.42
92.95
90.00
88.16
88.51
90.99
93.98
95.56
95.02
93.86
95.07
102.24
116.91
136.94
156.63
168.73
166.66
149.11
118.84
81.29
42.51
7.15
-22.16
-44.40
-59.51
-67.85
-70.22
-68.47
-65.27
-63.07
-63.81
-68.18
-75.27
-82.87
-87.95
-87.51
-81.06
-70.87
-61.69
-59.13
-66.37
-81.57
-97.81
-105.28
-95.79
-65.85
-20.60
31.15
79.37
116.21
137.59
142.43
131.57
107.08
72.80
34.88
1.70
-19.57
-25.63
-18.23
-3.61
10.53
18.31
17.61
10.20
-0.12
-10.03
-17.83
-23.29
-27.04
-29.66
-31.53
-33.35
-35.40
-38.12
-41.87
-46.77
-52.38
-58.18
-63.94
-69.75
-76.07
-83.29
-91.53
-100.59
-110.02
-119.38
-128.77
-138.96
-150.62
-164.38
-180.04
-196.45
-211.56
-222.89
-226.71
-218.95
-196.06
-156.55
-102.69
-40.91
19.54
69.72
104.20
123.71
134.09
143.06
156.35
175.11
196.21
214.90
227.23
231.98
230.63
225.74
219.48
213.08
207.05
201.43
196.53
192.29
188.33
183.15
174.39
159.07
135.86
106.51
75.83
49.92
33.15
25.48
22.58
17.27
3.07
-22.43
-56.72
-94.06
-128.65
-157.22
-179.85
-198.71
-216.13
-233.10
-248.81
-261.40
-269.01
-270.28
-263.40
-246.66
-218.85
-180.98
-137.00
-93.16
-55.73
-28.29
-10.21
3.39
18.81
40.38
68.23
98.71
126.55
147.82
160.98
166.95
167.98
166.32
163.26
159.47
155.42
151.62
148.47
146.04
143.72
140.09
133.40
122.98
109.66
96.54
87.70
85.91
90.64
97.54
99.63
91.38
70.59
39.13
1.70
-36.81
-73.04
-105.93
-135.67
-162.22
-184.39
-200.68
-209.92
-211.66
-206.65
-197.00
-185.71
-176.35
-172.06
-173.73
-179.17
-183.16
-178.57
-160.50
-128.05
-84.84
-37.25
8.53
48.76
82.57
110.58
132.95
148.55
155.84
154.39
145.96
134.44
124.13
118.38
118.09
121.86
126.59
129.36
128.23
122.35
112.03
98.92
85.43
74.75
70.03
72.70
81.25
91.15
95.84
90.27
72.39
43.83
8.87
-27.66
-62.08
-92.74
-119.36
-141.62
-158.50
-168.53
-170.55
-165.25
-155.99
-147.73
-145.89
-153.60
-169.59
-187.65
-199.07
-195.29
-172.83
-133.94
-85.18
-34.53
11.55
49.70
79.27
100.68
114.43
120.92
121.32
117.75
112.95
109.33
108.43
110.26
113.18
114.84
112.51
104.79
92.64
79.77
71.17
71.50
82.35
100.69
119.43
130.11
125.91
105.92
74.23
37.55
2.07
-29.07
-55.75
-79.67
-102.12
-122.52
-139.03
-149.90
-154.28
-152.10
-144.25
-132.10
-117.92
-105.12
-97.36
-96.65
-102.11
-109.45
-111.84
-103.52
-82.22
-50.19
-13.09
22.68
52.59
74.86
90.24
100.24
106.12
108.65
108.70
107.47
106.21
106.03
107.19
108.47
107.32
101.22
89.01
72.55
56.57
46.73
46.71
55.67
67.92
75.64
72.23
55.64
29.08
-0.96
-28.12
-48.97
-63.97
-75.60
-86.41
-97.40
-107.78
-115.77
-120.06
-120.20
-116.29
-109.09
-99.99
-90.68
-83.97
-82.72
-88.18
-98.53
-108.68
-111.50
-101.88
-78.61
-45.07
-7.56
27.87
57.82
82.13
102.33
119.70
133.76
143.18
146.81
144.57
137.28
126.09
111.48
93.76
74.11
54.99
39.98
32.05
31.57
35.67
38.95
36.00
23.97
3.66
-21.27
-46.27
-67.95
-84.93
-97.48
-106.58
-113.27
-118.12
-121.59
-124.42
-127.37
-130.88
-134.63
-136.81
-134.00
-122.58
-100.58
-69.49
-34.74
-4.09
15.58
21.49
16.67
8.71
5.98
13.59
31.30
54.37
76.39
92.60
101.27
103.56
102.10
99.40
96.82
94.87
93.65
93.13
93.09
93.10
92.29
89.18
82.34
71.74
59.14
48.44
44.11
48.63
60.60
74.71
83.33
80.67
65.06
39.37
9.28
-19.71
-44.65
-65.29
-83.00
-98.88
-112.69
-123.22
-129.31
-130.45
-126.71
-118.68
-107.85
-96.23
-86.96
-83.21
-86.83
-96.59
-107.80
-113.27
-107.15
-87.17
-55.65
-18.40
18.18
49.44
73.72
91.55
104.17
112.46
116.79
117.79
116.33
113.95
112.07
111.37
110.80
107.95
99.36
83.24
61.09
37.80
19.97
12.74
16.91
28.13
38.48
40.31
29.87
8.69
-17.71
-42.86
-62.26
-74.72
-81.84
-86.33
-90.23
-94.35
-98.53
-102.18
-105.19
-107.56
-109.08
-108.22
-103.07
-91.90
-75.08
-55.96
-39.88
-31.68
-32.78
-39.70
-45.41
-42.48
-26.70
1.00
35.27
69.13
97.17
117.03
129.18
135.73
138.98
140.24
140.31
139.55
138.11
135.87
132.57
126.66
115.79
97.87
72.37
41.62
10.90
-13.20
-25.24
-24.02
-13.42
-0.54
7.57
6.99
-1.83
-15.12
-28.48
-38.91
-45.83
-50.36
-53.77
-56.51
-58.17
-58.20
-56.70
-54.66
-53.25
-53.71
-56.41
-60.81
-65.71
-69.88
-72.62
-74.04
-74.97
-76.54
-79.70
-84.75
-91.33
-98.46
-105.08
-110.38
-113.72
-114.76
-113.06
-108.29
-99.41
-85.23
-64.83
-37.93
-5.23
31.59
70.03
107.14
140.07
166.37
184.25
192.71
191.64
181.73
164.26
140.93
113.32
83.48
53.36
24.51
-1.85
-24.88
-44.16
-59.35
-70.26
-76.84
-79.08
-77.38
-72.52
-65.57
-57.83
-50.85
-46.10
-44.83
-47.99
-55.82
-68.16
-84.21
-102.78
-122.26
-140.87
-156.87
-168.73
-175.39
-176.28
-171.46
-161.50
-147.36
-130.20
-111.21
-91.50
-71.97
-53.34
-36.10
-20.62
-7.12
4.39
13.98
21.77
27.96
32.74
36.23
38.55
39.67
39.53
38.07
35.24
31.08
25.78
19.64
13.00
6.11
-0.86
-7.81
-14.66
-21.25
-27.20
-31.88
-34.54
-34.41
-31.00
-24.70
-16.12
-6.09
4.65
15.59
26.67
38.11
50.13
62.69
75.27
87.10
97.28
105.20
110.78
114.56
117.53
121.05
126.61
135.70
149.40
167.70
188.96
209.82
225.96
233.47
230.27
216.92
196.27
172.28
148.42
126.65
107.42
90.34
75.04
61.61
50.49
41.87
35.37
30.03
24.81
19.06
12.87
6.94
2.24
-0.55
-1.33
-0.60
0.82
2.15
2.98
3.35
3.60
4.12
5.12
6.55
8.20
9.91
11.60
13.26
14.91
16.43
17.61
18.25
18.19
17.45
16.19
14.63
12.94
11.27
9.59
7.63
4.73
-0.02
-7.39
-17.44
-29.08
-40.17
-48.26
-51.70
-50.42
-45.96
-40.59
-36.06
-32.68
-29.35
-24.45
-16.92
-7.05
3.80
14.03
22.79
30.28
37.29
44.38
51.33
57.28
61.40
63.69
65.30
67.84
72.24
77.81
82.07
81.72
74.15
58.57
36.16
9.30
-19.54
-48.61
-76.87
-103.39
-126.67
-144.51
-154.45
-154.51
-143.72
-122.29
-91.32
-52.52
-8.13
38.80
84.78
126.01
158.94
181.08
191.49
190.87
180.88
163.20
139.14
109.33
73.88
32.60
-14.68
-68.00
-126.88
-189.43
-251.49
-306.56
-347.33
-368.40
-368.72
-352.33
-326.81
-299.93
-276.65
-257.63
-240.14
-220.70
-197.39
-170.99
-144.16
-119.81
-99.73
-84.03
-71.71
-61.48
-52.51
-44.60
-38.03
-32.75
-27.80
-21.26
-10.73
5.60
27.96
54.62
82.39
107.80
128.27
142.81
151.95
157.17
160.28
162.97
166.66
172.64
182.14
196.25
215.42
238.89
264.40
288.36
306.71
316.18
315.27
304.57
286.20
262.66
235.75
206.28
174.52
141.07
107.54
76.21
48.89
25.63
4.01
-20.33
-52.26
-95.11
-149.02
-210.21
-271.39
-323.58
-358.63
-372.06
-364.80
-343.38
-318.17
-300.10
-296.88
-310.39
-336.43
-365.95
-389.35
-399.12
-391.32
-365.14
-321.64
-262.40
-189.08
-104.36
-12.43
80.43
167.03
241.08
298.56
338.16
359.95
364.23
351.33
322.62
281.53
233.97
186.70
146.18
115.45
92.78
72.84
49.48
18.56
-20.80
-66.14
-113.30
-157.93
-196.56
-227.42
-248.72
-258.34
-253.92
-234.29
-200.98
-158.81
-115.03
-76.35
-45.63
-20.48
5.07
36.31
73.64
111.25
139.78
151.52
144.50
124.32
101.57
87.07
87.29
102.69
129.29
161.58
194.95
226.43
254.28
275.52
285.83
281.23
260.51
226.77
187.18
149.30
119.80
100.81
88.67
75.90
55.03
22.02
-22.59
-74.81
-129.15
-180.39
-224.83
-260.25
-285.79
-300.86
-305.38
-300.09
-286.79
-267.67
-244.59
-218.97
-191.56
-162.20
-129.70
-92.43
-49.68
-3.15
42.48
80.29
103.07
106.48
91.24
63.82
34.44
13.20
6.68
16.57
40.28
73.03
110.38
149.15
187.07
221.51
249.42
266.44
268.74
255.30
229.29
197.95
170.12
151.85
145.19
146.36
147.15
138.56
114.58
74.34
21.75
-36.63
-94.06
-145.21
-187.07
-218.42
-238.97
-248.46
-247.23
-237.38
-223.24
-210.53
-203.32
-201.61
-200.21
-190.60
-165.62
-124.47
-74.57
-28.80
0.56
7.82
-3.94
-24.80
-43.08
-50.45
-44.45
-27.44
-3.01
26.62
61.03
100.43
143.73
187.42
226.10
254.59
268.39
265.11
245.41
213.36
175.84
140.94
114.71
100.19
95.48
94.21
88.45
72.18
43.62
5.54
-36.68
-77.76
-114.20
-145.01
-170.65
-191.14
-205.83
-213.11
-211.84
-202.56
-187.84
-170.95
-154.07
-136.88
-116.60
-90.31
-57.94
-23.93
3.81
17.31
12.67
-7.76
-36.11
-62.02
-76.81
-76.10
-59.91
-31.13
6.45
49.54
95.16
140.19
180.94
213.62
234.29
239.86
229.19
204.23
170.26
134.86
105.12
86.02
77.88
76.05
73.15
62.31
39.75
5.82
-36.09
-81.12
-124.48
-162.42
-192.27
-211.61
-218.15
-210.72
-190.80
-163.32
-135.71
-115.30
-106.15
-106.68
-109.61
-104.95
-84.91
-48.23
-1.71
42.45
72.02
80.05
67.49
41.79
13.31
-9.12
-20.84
-21.48
-12.80
3.88
28.35
61.16
101.41
145.43
186.99
219.82
238.74
241.13
227.25
199.98
164.13
125.39
89.33
59.71
38.28
23.48
11.23
-3.68
-25.10
-53.56
-86.02
-117.45
-143.27
-161.49
-174.20
-185.80
-200.19
-218.46
-237.92
-253.12
-259.22
-254.42
-239.41
-215.91
-184.13
-141.88
-85.65
-13.67
70.71
157.79
233.51
283.89
299.89
280.86
234.04
172.63
112.44
66.64
42.53
40.75
56.80
83.75
114.85
144.94
169.56
184.49
186.16
173.25
148.45
118.20
89.81
69.95
61.03
60.03
60.29
54.79
39.22
13.22
-20.56
-58.40
-97.03
-134.51
-169.51
-200.50
-225.67
-243.65
-254.27
-259.20
-260.45
-259.33
-255.89
-248.72
-235.30
-212.81
-179.16
-133.84
-78.97
-19.69
36.26
79.91
104.11
106.27
89.67
62.08
33.34
11.82
2.10
4.70
17.46
38.02
64.93
97.17
133.11
169.61
202.25
226.68
240.74
243.48
235.04
216.62
190.36
159.58
128.72
102.43
83.67
73.41
69.43
67.19
61.60
48.68
26.54
-4.58
-42.94
-85.73
-129.07
-168.62
-199.90
-219.35
-224.87
-216.95
-199.46
-179.38
-164.91
-162.44
-173.18
-191.23
-204.74
-200.71
-171.41
-118.91
-55.17
3.11
41.97
55.94
49.22
32.39
16.74
9.37
11.70
21.38
35.92
54.89
79.68
111.69
149.88
189.81
224.56
247.80
254.80
243.99
217.67
181.67
143.94
112.45
92.68
85.22
86.34
88.94
85.62
71.85
47.64
16.77
-15.67
-46.07
-73.69
-100.05
-127.30
-156.29
-185.80
-213.09
-235.27
-250.53
-258.67
-260.81
-259.04
-254.88
-248.92
-240.59
-228.58
-211.54
-188.40
-158.31
-120.35
-73.63
-18.27
43.19
104.92
158.66
196.01
212.01
207.71
189.98
168.67
152.18
144.52
143.97
145.05
141.53
128.87
105.14
70.93
28.93
-16.46
-59.46
-93.80
-114.28
-118.34
-106.71
-83.17
-52.94
-20.77
10.40
39.58
66.73
91.61
112.95
128.49
135.91
133.89
123.02
105.55
84.61
63.07
42.86
24.92
9.58
-2.93
-12.19
-17.86
-20.02
-19.39
-17.38
-15.55
-15.13
-16.60
-19.60
-22.97
-25.32
-25.63
-23.72
-20.37
-16.93
-14.61
-13.95
-14.57
-15.54
-15.89
-15.13
-13.35
-11.03
-8.75
-6.88
-5.61
-4.89
-4.50
-4.12
-3.37
-1.98
0.00
2.23
4.18
5.40
5.80
5.68
5.57
5.91
6.85
8.23
9.79
11.31
12.71
13.99
15.17
16.31
17.52
19.10
21.43
24.79
29.17
34.14
38.96
42.83
45.25
46.18
46.08
45.75
46.05
47.63
50.62
54.61
58.70
61.81
62.92
61.43
57.24
50.79
42.80
34.02
24.83
15.17
4.53
-7.92
-22.88
-40.37
-59.19
-76.87
-90.23
-96.59
-94.96
-86.78
-75.75
-66.74
-64.15
-70.35
-84.92
-104.70
-125.04
-140.95
-148.23
-144.00
-126.77
-96.46
-54.22
-2.23
56.14
116.46
173.65
222.72
259.80
282.77
291.12
285.64
267.89
239.21
199.81
148.46
83.35
3.54
-89.00
-187.81
-283.08
-363.62
-420.50
-449.31
-450.96
-430.98
-397.81
-361.33
-331.22
-315.13
-316.62
-333.65
-358.03
-377.48
-379.63
-356.03
-304.91
-231.36
-145.15
-57.56
21.26
84.45
129.11
156.21
169.66
174.76
176.23
176.85
177.44
177.45
176.46
175.10
174.44
175.58
178.73
183.26
188.24
193.18
198.19
203.60
209.12
213.56
215.26
212.87
206.25
197.08
188.65
184.85
188.62
200.31
216.85
232.18
239.05
231.56
207.60
169.86
124.84
80.37
42.55
13.94
-6.67
-22.69
-37.76
-53.68
-69.93
-83.95
-92.54
-93.27
-85.19
-68.81
-45.58
-17.42
13.91
46.90
80.14
112.17
141.18
165.33
183.07
194.45
199.45
197.95
189.25
171.90
143.65
102.76
49.25
-14.16
-81.12
-144.54
-198.87
-242.85
-278.06
-306.43
-328.46
-342.52
-346.77
-341.26
-329.61
-317.65
-311.03
-312.72
-321.30
-332.63
-341.00
-340.36
-325.35
-292.11
-239.14
-168.33
-85.45
0.52
79.01
140.43
178.40
191.16
181.42
156.01
124.00
94.44
73.99
64.91
64.88
68.59
70.01
64.59
50.35
28.30
0.75
-29.23
-58.47
-83.70
-102.03
-111.44
-111.47
-103.26
-89.14
-71.75
-52.97
-33.45
-12.46
11.65
40.74
76.05
117.29
162.03
205.83
243.28
269.69
282.74
283.09
273.83
258.71
240.55
220.49
198.60
175.35
152.61
133.50
121.05
116.72
119.51
126.38
133.34
136.64
133.41
121.91
101.78
74.18
42.03
9.42
-19.80
-43.57
-62.65
-80.00
-98.94
-121.01
-144.85
-166.86
-183.18
-191.80
-193.30
-190.21
-185.16
-179.42
-172.54
-163.17
-150.47
-134.97
-118.37
-102.36
-87.55
-72.95
-56.61
-36.87
-13.53
11.76
36.12
56.60
71.37
80.17
84.16
85.09
84.57
83.53
82.12
79.92
76.15
70.00
60.89
48.76
34.30
18.95
4.55
-7.16
-15.12
-19.26
-20.40
-19.75
-18.39
-16.89
-15.28
-13.28
-10.62
-7.29
-3.51
0.32
3.88
7.05
9.86
12.45
15.11
18.26
22.67
29.27
38.80
51.27
65.45
78.99
88.97
92.87
89.37
78.64
61.73
39.81
13.77
-15.61
-47.15
-78.49
-106.06
-125.58
-133.00
-125.96
-104.25
-69.80
-26.18
22.33
71.47
117.57
157.92
191.42
217.60
236.00
245.66
245.14
232.63
206.25
164.14
104.62
28.43
-60.83
-155.83
-245.95
-319.47
-366.98
-384.56
-374.94
-347.65
-312.44
-276.58
-243.22
-211.94
-180.85
-148.77
-116.37
-85.69
-58.67
-36.08
-17.73
-3.04
7.49
12.51
10.46
1.32
-12.56
-27.00
-37.53
-42.25
-42.94
-44.26
-50.77
-64.37
-83.01
-101.79
-115.53
-120.67
-115.72
-100.02
-72.57
-32.15
20.36
79.71
135.85
176.83
193.96
185.85
159.75
128.61
105.91
100.26
113.06
139.64
172.52
204.66
231.11
249.41
257.67
254.40
239.41
214.97
185.93
158.35
136.58
122.34
113.62
105.45
92.09
69.56
36.45
-6.16
-55.47
-107.50
-157.53
-200.74
-232.84
-250.82
-253.40
-240.95
-215.43
-180.53
-142.04
-107.22
-83.35
-74.96
-80.95
-94.08
-103.47
-99.50
-78.69
-45.60
-10.61
15.08
24.67
18.25
1.68
-16.74
-29.78
-33.12
-25.62
-7.44
20.69
57.87
102.21
149.85
194.60
229.65
249.16
250.66
236.76
214.72
194.05
182.69
183.14
192.45
203.08
206.14
195.41
169.48
131.75
88.48
46.12
9.34
-20.04
-43.12
-62.82
-82.50
-104.79
-130.44
-158.21
-185.86
-212.09
-237.45
-264.30
-294.29
-325.48
-351.18
-361.36
-348.36
-312.05
-261.67
-212.75
-180.48
-172.63
-185.79
-207.68
-222.88
-219.68
-194.54
-151.40
-97.93
-41.46
13.43
64.30
109.25
146.41
174.93
196.08
213.65
232.63
256.85
286.70
318.45
344.02
355.55
347.74
319.31
272.71
212.48
143.61
71.12
0.17
-64.02
-116.47
-154.04
-176.44
-185.99
-186.39
-181.56
-173.82
-163.61
-149.97
-131.11
-105.80
-73.77
-35.76
6.33
48.99
87.36
115.85
129.53
126.29
107.66
79.14
48.54
23.37
8.49
5.69
14.16
31.90
57.00
87.43
120.39
151.74
177.02
191.12
190.21
173.51
144.31
109.80
78.82
58.98
52.97
58.28
67.47
71.33
63.11
41.47
11.09
-19.78
-43.74
-57.45
-62.71
-65.47
-72.76
-89.47
-116.68
-151.32
-187.50
-218.70
-239.17
-245.19
-235.33
-210.00
-171.34
-123.94
-74.96
-33.36
-7.59
-2.62
-17.74
-46.52
-78.75
-103.68
-113.77
-106.14
-82.16
-45.87
-1.86
45.71
93.15
136.92
173.75
200.25
213.36
211.06
193.37
163.49
127.53
93.21
67.07
52.86
49.45
51.28
50.88
42.08
22.50
-6.18
-39.83
-74.08
-105.85
-133.92
-158.07
-178.15
-193.46
-203.53
-207.75
-205.73
-197.33
-182.50
-161.04
-132.20
-95.14
-49.98
0.66
50.94
92.68
117.99
122.52
107.21
78.76
47.17
21.94
8.94
9.20
20.29
38.58
61.29
86.80
114.12
141.68
166.55
185.30
193.81
188.71
168.92
137.24
100.32
67.19
46.09
40.63
48.61
62.14
71.11
67.31
47.71
15.09
-23.60
-60.50
-89.38
-106.82
-112.16
-107.05
-95.24
-82.55
-75.77
-80.39
-98.07
-125.08
-152.62
-169.74
-167.27
-141.59
-96.48
-42.28
7.78
42.15
54.74
46.38
23.60
-4.23
-28.32
-42.84
-45.55
-36.74
-17.37
11.32
47.81
89.11
130.55
166.51
192.62
206.15
206.20
193.21
168.74
135.44
97.40
59.99
28.44
7.09
-3.14
-5.47
-5.76
-10.11
-22.09
-41.31
-63.75
-84.23
-99.60
-109.98
-117.70
-125.05
-131.94
-135.95
-134.40
-127.22
-118.02
-112.47
-114.15
-121.19
-126.41
-121.30
-101.46
-70.13
-36.51
-10.95
1.27
2.87
2.62
9.83
29.18
58.86
92.82
124.71
151.19
172.70
191.67
210.06
227.65
243.02
252.88
253.73
243.16
219.84
183.73
136.16
80.16
20.72
-34.67
-78.55
-106.09
-116.98
-115.53
-108.52
-102.32
-100.58
-103.78
-110.45
-119.26
-129.85
-142.58
-157.58
-173.95
-189.97
-204.02
-215.22
-224.25
-233.03
-243.74
-257.55
-274.05
-291.22
-306.11
-316.25
-319.59
-315.14
-303.02
-284.00
-258.80
-227.78
-190.76
-147.42
-97.89
-43.07
14.94
73.04
127.73
175.85
215.20
244.90
265.24
277.25
282.22
281.17
274.69
263.18
247.16
227.65
206.34
185.33
166.82
152.88
145.24
145.08
152.67
166.86
184.44
200.77
210.93
211.19
200.49
180.66
155.59
129.55
105.64
85.08
67.64
52.53
39.27
27.94
18.77
11.61
5.76
0.22
-5.74
-12.14
-18.35
-23.30
-26.12
-26.51
-24.89
-22.25
-19.79
-18.37
-18.25
-19.06
-20.01
-20.34
-19.68
-18.15
-16.23
-14.46
-13.14
-12.26
-11.57
-10.75
-9.60
-8.06
-6.32
-4.75
-3.82
-3.99
-5.47
-8.08
-11.20
-14.02
-15.96
-16.91
-17.25
-17.63
-18.52
-19.93
-21.44
-22.48
-22.66
-21.95
-20.63
-19.01
-17.30
-15.57
-13.82
-12.13
-10.66
-9.55
-8.76
-8.06
-7.04
-5.37
-2.87
0.42
4.32
8.58
12.99
17.39
21.66
25.71
29.41
32.55
34.80
35.83
35.42
33.69
31.10
28.30
25.87
24.02
22.49
20.77
18.44
15.55
12.63
10.42
9.44
9.63
10.23
10.05
7.85
2.67
-5.99
-18.12
-33.17
-49.98
-66.82
-81.65
-92.58
-98.46
-99.17
-95.64
-89.27
-81.35
-72.65
-63.37
-53.53
-43.31
-33.25
-24.09
-16.46
-10.61
-6.36
-3.23
-0.66
1.94
5.10
9.35
15.04
22.25
30.70
39.75
48.56
56.38
62.72
67.46
70.79
73.13
74.94
76.62
78.39
80.23
81.78
82.41
81.35
78.05
72.42
65.02
57.23
50.92
48.10
50.23
57.40
67.78
77.62
82.14
76.80
58.82
28.27
-11.80
-56.09
-98.57
-133.98
-158.73
-171.16
-171.20
-159.92
-139.29
-112.16
-82.13
-53.04
-28.22
-9.69
1.86
6.35
3.44
-7.97
-29.28
-61.00
-101.57
-147.07
-192.06
-230.57
-258.38
-273.60
-276.17
-266.63
-244.99
-210.62
-162.95
-102.40
-31.45
45.28
121.73
191.78
250.81
296.31
328.79
350.32
362.96
367.26
361.56
342.90
308.28
256.22
187.67
105.96
15.15
-79.63
-171.75
-253.16
-315.63
-353.77
-367.88
-363.60
-351.35
-340.95
-335.71
-330.26
-313.55
-275.35
-212.51
-131.17
-44.31
34.53
95.34
134.45
153.39
155.58
143.62
118.72
82.06
36.08
-15.18
-66.68
-113.88
-153.63
-185.07
-209.04
-227.55
-241.78
-251.89
-257.21
-256.47
-248.62
-233.14
-210.32
-181.30
-147.41
-109.30
-66.39
-16.99
40.59
106.12
176.15
243.76
300.26
338.44
355.61
354.60
342.46
327.45
315.81
310.25
310.32
313.56
317.33
319.60
318.46
311.54
297.09
272.54
237.03
192.65
145.06
102.51
72.51
59.28
61.53
72.80
83.54
84.94
71.55
42.20
-1.13
-54.55
-113.98
-175.89
-236.82
-292.44
-336.43
-360.92
-358.38
-324.45
-260.45
-174.34
-78.75
12.39
87.63
140.58
170.34
179.72
172.61
151.66
118.50
74.65
22.98
-31.42
-82.64
-125.59
-157.69
-179.50
-193.86
-203.86
-211.11
-214.94
-212.67
-200.92
-177.16
-140.47
-91.84
-33.87
29.43
92.86
150.18
195.38
223.97
234.62
229.69
214.33
194.62
175.83
161.37
152.81
150.62
154.70
164.21
177.34
191.10
201.81
205.99
202.06
189.46
169.17
144.72
121.78
106.84
104.06
111.86
122.02
121.50
97.25
42.42
-39.82
-137.33
-234.37
-318.20
-383.24
-431.22
-467.08
-493.42
-508.82
-509.12
-491.02
-455.40
-407.47
-353.54
-298.24
-239.72
-172.05
-90.08
6.07
109.44
208.34
289.93
344.42
368.63
365.79
343.06
308.44
268.20
226.22
184.31
142.95
102.30
62.65
24.74
-10.33
-41.64
-68.36
-89.77
-104.80
-111.74
-108.56
-94.19
-70.09
-40.99
-13.95
4.14
9.31
2.42
-11.18
-23.91
-29.00
-22.82
-5.56
19.95
49.66
79.83
107.72
131.13
147.79
155.89
153.96
142.30
124.10
105.66
94.46
95.44
107.90
124.76
134.94
128.08
98.98
49.55
-12.62
-78.00
-139.04
-192.35
-237.98
-276.47
-306.09
-321.94
-317.68
-288.05
-233.10
-159.36
-78.19
-3.03
54.81
89.48
101.68
96.75
81.21
60.12
35.89
8.95
-20.61
-51.81
-82.39
-109.49
-130.87
-145.27
-152.61
-152.97
-145.62
-128.48
-99.24
-57.26
-5.59
48.66
96.24
128.79
142.41
139.28
126.51
112.98
105.90
108.53
120.07
137.37
156.52
174.63
189.90
201.30
207.57
207.72
200.39
185.26
164.52
143.12
127.04
119.73
119.59
119.53
110.12
83.86
38.74
-20.79
-86.67
-151.02
-209.62
-262.08
-309.36
-350.04
-377.86
-384.02
-361.08
-307.21
-228.14
-135.98
-45.16
31.24
85.00
114.20
121.94
113.86
95.23
70.04
40.74
8.97
-23.73
-55.69
-85.18
-110.80
-131.40
-146.64
-156.06
-158.75
-152.94
-136.11
-106.25
-63.56
-11.95
41.19
86.99
118.09
131.47
129.56
118.80
106.86
99.84
100.67
109.34
124.31
143.29
163.84
183.39
198.86
206.88
204.81
191.35
167.74
138.65
112.18
96.70
97.32
112.12
131.52
141.64
130.31
92.61
33.14
-36.74
-104.37
-161.12
-204.54
-237.03
-262.41
-282.90
-297.66
-302.85
-294.28
-268.98
-226.14
-168.07
-99.94
-29.15
35.23
85.32
116.57
128.60
124.09
107.17
81.59
50.04
14.83
-21.89
-57.41
-89.07
-114.87
-133.98
-146.95
-154.72
-157.35
-153.26
-139.14
-111.50
-69.21
-15.38
42.30
93.70
129.66
145.75
143.94
131.43
117.48
109.62
111.44
122.54
139.70
158.99
177.17
191.62
199.78
199.74
189.65
169.65
143.14
116.79
98.96
95.40
105.96
123.64
136.75
133.59
107.53
59.17
-4.47
-73.44
-138.82
-195.37
-241.82
-279.28
-308.61
-327.75
-332.50
-318.04
-281.24
-223.16
-150.19
-72.20
-1.10
53.10
85.60
97.24
92.67
77.65
56.35
30.70
1.44
-30.76
-63.84
-94.65
-120.02
-138.15
-148.66
-152.43
-150.11
-140.99
-122.61
-92.18
-48.92
3.88
58.64
105.71
136.65
147.87
142.18
127.39
112.87
105.99
109.75
123.09
142.31
163.30
182.72
198.14
207.42
208.33
198.99
179.40
153.27
128.34
112.84
111.28
120.44
129.54
124.34
94.20
37.49
-37.71
-117.32
-188.29
-243.58
-283.15
-309.85
-326.61
-334.12
-331.25
-318.35
-295.93
-264.56
-223.72
-172.02
-107.83
-33.06
46.05
120.06
178.89
215.83
229.00
221.44
198.74
166.53
129.10
89.06
48.20
8.07
-29.50
-62.80
-90.56
-112.20
-127.09
-133.90
-130.51
-114.92
-86.89
-49.34
-8.64
27.39
51.96
62.46
61.36
55.00
50.54
53.05
64.05
82.14
104.35
127.47
149.18
167.67
181.41
188.77
188.86
180.83
164.56
141.78
115.85
91.19
71.00
55.53
41.57
23.72
-2.66
-38.94
-82.36
-127.46
-168.78
-203.22
-230.87
-253.80
-273.39
-287.95
-292.27
-278.62
-241.32
-179.73
-99.58
-11.88
70.38
135.27
175.80
191.23
186.10
166.82
139.27
107.15
72.11
35.19
-2.39
-38.82
-71.92
-99.83
-121.60
-137.19
-146.97
-150.27
-145.22
-129.49
-102.19
-65.68
-25.76
9.79
34.47
45.51
45.36
40.40
37.98
43.52
58.87
82.64
111.65
142.19
171.03
195.49
213.21
221.74
219.72
206.66
184.20
156.83
131.28
114.10
108.16
110.52
112.97
105.47
80.68
37.73
-17.77
-76.61
-130.37
-174.37
-208.38
-234.98
-256.92
-274.65
-285.60
-285.15
-267.97
-231.29
-176.55
-110.07
-41.16
19.18
62.05
83.52
85.18
72.01
49.63
21.96
-9.40
-43.84
-80.40
-116.61
-148.62
-172.64
-186.88
-191.14
-186.23
-172.54
-149.19
-114.45
-67.65
-11.09
49.12
104.30
145.98
169.42
175.56
170.42
162.30
158.34
162.33
174.41
191.84
210.91
228.20
240.69
245.42
240.50
224.23
197.06
162.90
128.95
104.04
94.34
100.13
114.84
127.12
125.29
102.32
58.22
-0.70
-65.11
-126.49
-179.75
-223.74
-259.79
-288.41
-308.06
-314.88
-304.16
-272.62
-220.93
-155.03
-84.32
-20.39
26.85
52.45
57.31
46.13
24.91
-1.82
-31.73
-63.77
-97.14
-129.95
-159.36
-182.42
-197.71
-204.89
-204.57
-197.00
-181.04
-153.94
-112.81
-56.91
10.20
80.37
142.63
187.15
209.40
211.83
202.40
190.78
184.66
187.04
196.28
208.33
219.11
225.93
227.25
222.53
210.14
188.68
158.48
122.62
87.01
57.85
38.63
28.17
20.78
8.68
-13.75
-47.84
-90.30
-134.86
-175.51
-208.35
-231.53
-245.35
-251.82
-251.00
-240.58
-216.81
-175.86
-117.19
-44.75
33.09
105.40
161.52
194.83
204.13
192.61
165.97
129.62
87.84
43.88
0.12
-41.41
-78.79
-110.73
-136.80
-157.13
-172.61
-183.20
-187.38
-182.17
-163.61
-128.76
-77.93
-16.15
47.52
102.20
139.55
157.04
158.66
152.72
147.83
149.42
158.33
171.42
184.61
195.07
201.85
205.01
205.02
200.73
190.15
171.63
144.83
111.52
74.63
37.02
0.52
-34.33
-67.91
-100.41
-131.43
-159.99
-184.80
-204.65
-218.83
-227.66
-232.38
-234.28
-233.32
-226.66
-210.01
-179.06
-132.02
-71.56
-4.71
57.52
104.34
128.99
130.65
113.30
83.51
47.37
9.12
-28.65
-64.73
-98.01
-127.32
-151.72
-170.99
-185.38
-195.82
-201.70
-200.37
-187.56
-159.26
-114.39
-56.88
4.34
58.20
95.40
112.68
114.05
108.63
106.09
112.65
129.02
151.09
173.17
190.69
201.10
203.05
195.72
178.42
152.19
121.81
95.77
83.04
88.99
110.94
137.69
153.54
144.98
106.78
43.96
-31.13
-104.49
-165.61
-209.86
-236.58
-246.79
-241.58
-221.96
-190.59
-152.87
-115.38
-83.31
-56.34
-28.83
6.41
53.58
111.01
170.97
221.80
253.00
259.66
243.50
210.94
169.79
125.72
81.46
37.68
-5.52
-47.06
-84.64
-115.86
-139.24
-154.42
-161.76
-161.88
-155.06
-142.28
-125.73
-109.29
-97.49
-93.59
-97.57
-105.89
-112.45
-111.15
-98.33
-73.75
-39.71
0.08
41.80
81.77
116.02
140.24
150.31
143.48
120.04
84.92
47.15
17.26
3.93
10.33
32.97
62.88
88.81
101.18
95.25
71.75
35.50
-6.76
-48.74
-85.72
-114.73
-134.73
-145.53
-146.81
-136.39
-110.96
-68.11
-9.19
59.83
129.00
187.22
225.13
238.49
229.32
203.47
167.90
127.72
85.48
42.37
-1.12
-43.64
-83.00
-116.69
-143.09
-161.88
-173.98
-180.68
-181.94
-176.24
-161.25
-135.79
-101.68
-64.29
-31.02
-8.26
1.36
0.42
-4.66
-6.53
-0.01
16.38
40.84
69.59
98.67
124.65
144.72
155.73
155.22
141.29
114.50
79.34
43.58
16.84
6.74
15.70
39.42
68.07
89.61
94.41
78.40
43.76
-2.48
-51.86
-97.39
-135.34
-165.10
-187.37
-201.64
-205.00
-192.80
-161.01
-108.74
-41.02
32.14
98.40
146.74
171.28
172.78
156.60
129.80
97.85
63.21
26.54
-12.19
-51.89
-90.16
-123.82
-150.19
-167.95
-177.35
-179.66
-175.12
-162.60
-139.99
-106.32
-63.56
-17.30
24.74
55.23
70.54
72.39
66.71
60.82
60.30
67.42
81.48
99.89
119.62
137.83
151.75
157.94
153.39
135.57
104.82
66.09
28.11
1.37
-6.40
6.22
33.02
62.08
80.34
78.72
55.33
15.27
-32.32
-78.22
-116.16
-143.21
-159.45
-166.87
-167.51
-162.66
-150.92
-129.10
-94.22
-46.10
11.51
70.97
122.72
158.31
173.77
170.25
152.77
127.03
96.84
63.89
28.16
-9.95
-48.58
-84.21
-113.12
-133.04
-143.79
-146.68
-143.32
-133.93
-117.59
-93.56
-63.14
-30.64
-2.33
16.03
21.90
17.55
9.11
3.76
6.72
19.55
40.57
66.05
92.05
115.40
133.36
143.32
142.90
130.11
105.02
71.24
36.29
9.73
-0.31
9.41
34.88
65.69
88.41
91.68
70.51
27.61
-28.46
-87.44
-141.25
-185.52
-218.05
-236.51
-237.04
-215.52
-170.44
-105.67
-30.84
41.04
97.02
128.74
134.71
119.74
91.54
57.47
22.34
-11.82
-44.66
-76.34
-106.06
-132.12
-152.36
-165.15
-169.80
-166.48
-155.61
-137.03
-109.37
-70.91
-21.46
35.71
93.40
142.20
173.34
182.36
171.17
147.29
120.93
101.15
93.04
97.15
110.39
127.86
144.46
155.51
156.98
146.08
123.38
93.00
63.07
43.92
44.52
68.21
109.34
153.58
182.02
178.17
134.63
56.61
-39.80
-133.63
-206.82
-249.11
-260.23
-248.24
-224.59
-199.38
-178.57
-164.27
-156.62
-155.95
-163.16
-178.66
-200.86
-225.66
-247.38
-261.03
-264.66
-259.30
-248.35
-235.59
-223.27
-211.00
-196.23
-175.56
-146.63
-109.32
-65.94
-20.48
23.00
61.74
95.12
124.78
153.94
185.78
222.36
263.36
305.55
343.36
370.48
381.76
374.84
350.87
313.78
269.11
222.52
178.75
141.19
111.87
91.44
79.08
72.58
68.80
64.57
57.69
47.66
35.55
23.25
12.44
3.73
-3.46
-10.32
-17.84
-26.24
-34.92
-42.97
-49.68
-54.77
-58.09
-59.35
-57.94
-53.27
-45.33
-35.08
-24.22
-14.53
-7.19
-2.43
0.34
1.92
2.85
3.19
2.60
0.60
-3.07
-8.25
-14.28
-20.06
-24.38
-26.31
-25.59
-22.77
-19.02
-15.50
-12.97
-11.59
-11.06
-11.04
-11.43
-12.30
-13.70
-15.43
-17.00
-17.97
-18.14
-17.80
-17.48
-17.69
-18.54
-19.77
-20.83
-21.23
-20.77
-19.59
-18.12
-16.85
-16.19
-16.36
-17.32
-18.77
-20.22
-21.19
-21.34
-20.59
-19.12
-17.20
-15.03
-12.56
-9.61
-5.98
-1.76
2.71
6.89
10.28
12.63
13.97
14.56
14.59
14.16
13.20
11.60
9.43
6.93
4.53
2.63
1.43
0.87
0.64
0.41
-0.01
-0.57
-1.06
-1.23
-0.99
-0.48
0.03
0.22
-0.05
-0.72
-1.60
-2.42
-2.97
-3.16
-2.96
-2.42
-1.60
-0.64
0.32
1.12
1.69
2.09
2.56
3.38
4.78
6.80
9.20
11.57
13.47
14.64
15.04
14.88
14.43
13.93
13.44
12.90
12.17
11.18
9.93
8.48
6.95
5.40
3.83
2.19
0.50
-1.18
-2.64
-3.59
-3.79
-3.12
-1.67
0.29
2.43
4.43
6.07
7.22
7.79
7.70
6.91
5.53
3.86
2.32
1.39
1.35
2.25
3.87
5.80
7.64
9.06
9.94
10.27
10.14
9.67
8.99
8.22
7.49
6.92
6.64
6.67
6.95
7.34
7.65
7.71
7.41
6.64
5.28
3.08
-0.21
-4.75
-10.40
-16.55
-22.27
-26.58
-28.83
-28.99
-27.61
-25.63
-23.94
-23.05
-22.97
-23.34
-23.69
-23.70
-23.30
-22.61
-21.79
-20.90
-19.90
-18.69
-17.27
-15.73
-14.27
-13.11
-12.33
-11.89
-11.63
-11.36
-10.94
-10.27
-9.32
-8.08
-6.54
-4.76
-2.82
-0.86
0.93
2.37
3.32
3.78
3.88
3.83
3.88
4.13
4.55
4.98
5.25
5.33
5.35
5.56
6.19
7.29
8.69
10.14
11.34
12.20
12.78
13.25
13.83
14.69
15.90
17.47
19.29
21.21
22.99
24.49
25.68
26.73
27.96
29.65
31.88
34.41
36.76
38.39
38.95
38.48
37.33
36.05
35.08
34.64
34.61
34.47
33.41
30.38
24.26
14.23
0.07
-17.51
-36.82
-55.60
-71.53
-82.93
-89.13
-90.48
-87.96
-82.65
-75.37
-66.60
-56.76
-46.49
-36.77
-28.72
-23.27
-20.75
-20.86
-22.82
-25.73
-28.70
-30.96
-31.75
-30.38
-26.45
-20.17
-12.36
-4.24
3.15
9.30
14.42
19.03
23.44
27.50
30.61
32.18
32.06
30.62
28.51
26.25
23.93
21.32
18.19
14.57
10.85
7.59
5.19
3.73
2.97
2.55
2.20
1.80
1.34
0.76
-0.02
-1.12
-2.50
-3.98
-5.27
-6.15
-6.56
-6.63
-6.55
-6.48
-6.41
-6.21
-5.74
-4.92
-3.81
-2.57
-1.38
-0.39
0.33
0.80
1.08
1.26
1.40
1.57
1.78
1.99
2.15
2.18
2.00
1.55
0.76
-0.37
-1.75
-3.19
-4.47
-5.38
-5.83
-5.88
-5.72
-5.52
-5.39
-5.32
-5.20
-5.00
-4.81
-4.81
-5.19
-6.04
-7.23
-8.50
-9.52
-10.07
-9.99
-9.21
-7.62
-5.13
-1.73
2.35
6.61
10.38
13.01
14.16
13.91
12.65
10.90
9.05
7.34
5.88
4.76
4.12
4.06
4.53
5.34
6.24
7.01
7.55
7.90
8.10
8.12
7.85
7.17
6.05
4.59
3.00
1.54
0.40
-0.25
-0.34
0.15
1.10
2.31
3.48
4.36
4.81
4.93
4.92
5.02
5.33
5.81
6.29
6.64
6.80
6.86
6.97
7.20
7.55
7.95
8.33
8.74
9.25
9.97
10.91
11.98
12.98
13.75
14.25
14.59
14.99
15.69
16.81
18.35
20.20
22.24
24.41
26.68
29.05
31.44
33.73
35.85
37.83
39.89
42.29
45.26
48.80
52.63
56.42
59.90
63.10
66.33
70.04
74.47
79.37
83.94
87.06
87.71
85.48
80.87
75.22
70.27
67.52
67.72
70.41
73.87
75.43
72.01
60.73
39.65
8.36
-31.53
-76.28
-120.54
-158.37
-184.79
-197.09
-195.42
-182.53
-162.55
-139.49
-116.20
-94.15
-74.00
-56.50
-42.91
-34.63
-32.23
-34.88
-40.51
-47.01
-53.54
-61.08
-71.90
-87.95
-109.27
-133.53
-156.79
-175.17
-186.36
-190.03
-187.18
-179.06
-166.46
-149.87
-130.17
-109.03
-88.71
-71.44
-58.58
-50.31
-46.05
-45.08
-47.18
-52.50
-60.81
-70.56
-78.62
-80.96
-74.25
-57.34
-32.19
-2.93
24.88
46.55
59.82
65.22
65.34
63.19
60.99
59.45
58.44
57.58
57.07
57.87
61.42
69.16
82.35
101.97
128.81
162.89
202.36
242.79
277.34
298.48
300.65
282.70
248.36
205.31
162.32
126.26
100.42
84.87
77.98
78.10
84.07
94.89
109.04
124.16
137.48
146.96
152.03
153.57
153.44
153.31
153.74
153.65
150.87
142.76
126.70
100.71
63.65
15.86
-40.38
-100.65
-159.38
-211.48
-254.21
-288.14
-316.24
-342.18
-366.90
-389.36
-407.20
-418.33
-421.49
-415.79
-399.70
-370.44
-325.10
-262.74
-186.80
-104.30
-25.67
38.97
83.13
105.17
107.92
96.56
76.78
53.45
30.04
8.66
-9.78
-25.26
-38.53
-50.26
-61.03
-70.18
-75.84
-75.07
-64.12
-39.56
0.20
53.11
112.81
169.77
213.86
238.21
241.92
230.39
212.66
197.34
189.12
187.88
190.36
193.01
193.98
193.71
193.67
194.50
195.09
193.15
185.98
171.81
150.56
123.70
92.86
59.40
23.24
-16.80
-62.16
-112.96
-167.12
-220.49
-267.93
-304.88
-328.24
-337.29
-331.45
-311.97
-280.88
-240.95
-196.18
-151.51
-112.43
-80.67
-54.06
-27.14
5.79
47.78
97.21
147.66
189.71
214.87
219.20
203.90
174.13
136.47
96.28
56.97
20.03
-14.08
-44.80
-71.33
-93.18
-110.23
-122.69
-131.18
-134.94
-131.80
-118.41
-91.93
-52.20
-3.43
46.30
87.63
113.38
122.03
118.15
110.19
106.40
111.45
125.01
143.27
161.72
177.06
188.22
195.42
198.87
198.17
192.91
182.60
167.29
147.59
124.20
96.98
64.59
24.84
-23.66
-79.70
-138.67
-193.54
-237.16
-265.38
-278.56
-280.77
-277.64
-273.34
-269.26
-264.41
-256.41
-242.45
-219.74
-185.69
-138.53
-78.67
-9.58
62.18
127.54
177.19
204.95
209.29
192.60
159.65
115.48
64.76
11.87
-39.28
-85.14
-123.29
-153.25
-176.26
-194.32
-209.15
-221.51
-230.00
-231.80
-223.25
-200.94
-162.41
-107.00
-36.72
43.00
123.88
195.94
250.38
282.54
293.36
288.65
276.38
263.52
253.73
247.49
243.19
238.80
233.12
225.57
215.94
203.42
187.42
166.13
138.35
104.95
69.08
35.59
8.30
-11.90
-27.76
-44.45
-66.88
-97.01
-133.02
-170.43
-204.43
-232.55
-254.80
-272.51
-285.93
-292.58
-287.11
-263.53
-218.16
-151.29
-69.14
17.92
98.33
162.46
204.46
223.12
220.83
201.19
167.76
123.46
71.62
16.76
-35.88
-81.66
-118.01
-145.28
-165.91
-183.11
-198.94
-213.13
-223.91
-227.97
-221.42
-201.02
-164.80
-112.92
-48.50
22.12
90.28
146.68
184.53
202.04
202.79
194.08
183.68
176.93
175.57
178.30
182.42
185.52
186.21
183.76
177.53
167.01
150.62
126.81
95.81
61.11
28.91
6.13
-3.59
-2.21
2.72
1.44
-13.21
-42.51
-81.61
-122.61
-159.03
-188.75
-213.30
-234.64
-251.46
-257.85
-245.65
-208.81
-147.32
-67.56
18.61
98.17
160.95
201.55
219.87
219.06
203.10
174.76
136.04
89.03
37.18
-14.21
-59.79
-95.96
-122.09
-140.42
-154.87
-168.88
-183.85
-198.54
-209.98
-213.42
-203.95
-178.01
-134.89
-77.87
-14.27
46.07
93.80
123.14
134.39
133.55
129.47
129.77
137.81
151.94
167.52
180.00
186.93
188.65
187.05
183.77
178.93
172.14
161.74
146.27
124.80
96.87
62.65
22.50
-22.54
-70.16
-116.31
-156.10
-185.17
-201.51
-206.41
-203.99
-199.47
-196.82
-197.02
-197.35
-192.41
-176.14
-144.18
-95.66
-33.70
35.21
102.87
160.83
202.01
222.26
220.89
199.99
163.24
115.62
62.57
9.72
-37.64
-76.39
-106.07
-128.56
-147.17
-164.93
-182.96
-200.03
-213.48
-219.09
-212.27
-189.53
-150.04
-96.76
-36.66
20.93
67.19
96.78
110.05
112.72
113.07
117.96
130.12
147.58
165.95
181.26
191.69
197.74
200.69
201.03
197.48
188.83
173.67
151.88
124.66
93.56
59.57
22.27
-19.23
-64.91
-112.20
-156.06
-190.56
-211.34
-217.53
-212.01
-199.54
-183.45
-165.76
-146.94
-127.16
-106.88
-87.05
-66.51
-41.93
-9.24
33.72
84.89
137.65
182.14
209.04
213.20
195.00
159.31
112.89
62.08
11.88
-34.48
-74.96
-108.64
-135.66
-156.91
-173.92
-187.79
-198.67
-205.57
-207.07
-200.83
-183.98
-154.21
-110.86
-56.29
3.77
61.17
107.18
135.90
146.56
143.48
133.84
124.41
118.95
117.85
119.56
122.27
125.11
127.76
129.07
126.14
115.44
93.33
59.15
17.07
-24.90
-56.66
-70.18
-62.52
-36.82
-1.37
32.89
55.63
59.95
43.83
10.32
-33.69
-79.50
-118.87
-146.10
-159.45
-160.18
-150.14
-129.79
-96.98
-49.59
11.15
79.26
144.82
197.23
229.30
237.69
224.85
196.75
159.60
117.68
73.76
29.60
-12.83
-51.14
-83.36
-108.31
-126.19
-138.33
-146.46
-151.67
-153.93
-152.18
-143.91
-126.25
-97.23
-57.84
-13.01
29.32
60.62
75.11
72.49
58.19
40.74
28.18
24.99
31.16
43.42
57.62
70.53
80.37
86.20
86.72
79.73
63.02
36.36
3.27
-29.54
-53.09
-59.78
-46.80
-17.95
16.85
45.36
57.37
48.00
19.01
-22.57
-67.96
-109.84
-143.45
-166.48
-177.89
-175.16
-154.63
-113.75
-53.66
19.16
93.86
158.42
202.60
221.43
216.36
193.43
159.63
120.95
81.29
42.77
7.25
-23.93
-49.76
-69.94
-85.35
-97.37
-107.39
-116.00
-122.65
-125.45
-122.10
-109.81
-87.18
-55.91
-21.31
8.93
27.57
30.97
21.01
4.52
-9.46
-13.78
-5.91
11.88
34.74
58.08
78.95
96.57
110.64
120.41
124.05
120.11
107.56
86.88
60.42
31.53
3.57
-21.49
-43.41
-63.47
-83.09
-102.69
-121.31
-136.80
-147.29
-151.96
-151.40
-146.15
-137.40
-126.25
-113.42
-99.16
-82.50
-61.61
-33.18
5.37
53.90
108.18
160.32
201.62
224.52
226.22
208.62
176.98
137.04
93.35
49.38
7.78
-28.90
-58.63
-80.53
-95.25
-104.79
-111.62
-117.48
-122.48
-125.23
-122.54
-110.64
-86.31
-48.86
-1.45
48.67
92.07
120.11
128.52
119.62
101.17
83.04
72.72
72.57
79.96
89.62
97.12
100.62
100.72
98.62
94.84
88.20
76.70
59.11
35.76
7.72
-23.37
-56.50
-91.06
-125.69
-157.44
-181.92
-194.81
-193.87
-180.33
-158.50
-132.90
-107.96
-85.79
-66.72
-50.67
-37.73
-27.82
-18.82
-6.49
13.79
44.33
82.80
122.30
153.18
167.36
161.53
137.69
101.58
59.82
17.77
-20.68
-53.40
-79.37
-98.48
-111.48
-119.79
-125.21
-128.91
-131.07
-130.89
-126.25
-114.58
-93.20
-60.30
-16.09
36.10
89.66
135.68
165.88
175.93
167.33
146.88
123.69
105.40
95.51
93.25
95.27
97.98
99.31
98.84
96.69
92.29
84.74
71.92
52.15
25.60
-5.13
-34.42
-56.02
-65.55
-62.57
-51.32
-39.01
-32.84
-37.07
-51.36
-71.61
-92.43
-109.83
-122.44
-130.34
-132.87
-127.25
-109.31
-76.00
-28.08
28.49
83.91
127.63
151.73
153.81
137.11
107.94
72.53
35.59
-0.18
-33.38
-62.42
-85.92
-102.90
-113.77
-120.28
-124.72
-128.98
-133.63
-137.73
-139.20
-135.48
-123.43
-100.59
-66.34
-23.17
23.16
64.66
93.71
105.97
102.41
89.35
75.48
68.22
70.79
81.96
97.40
112.28
123.34
129.17
129.76
124.89
114.23
96.50
71.46
41.25
10.30
-15.60
-32.23
-38.95
-39.36
-39.32
-44.10
-55.47
-71.35
-87.33
-99.20
-105.00
-105.18
-102.15
-98.09
-93.23
-85.17
-70.36
-45.28
-8.62
37.33
86.77
131.58
164.05
178.70
174.55
154.62
123.63
86.10
45.11
2.93
-37.71
-73.59
-101.54
-119.93
-129.78
-134.13
-136.85
-140.66
-145.71
-149.64
-148.89
-139.46
-118.21
-84.18
-39.19
11.94
62.12
103.69
130.48
140.15
135.32
122.32
108.25
98.14
93.41
92.73
94.05
95.97
98.46
101.72
104.89
105.18
99.46
84.66
59.59
25.88
-12.62
-49.67
-78.37
-92.95
-90.94
-74.78
-51.56
-30.81
-20.92
-25.94
-43.94
-68.05
-89.90
-103.18
-106.29
-102.04
-94.35
-85.23
-72.28
-50.59
-16.47
29.21
80.15
126.22
157.12
166.81
155.71
129.15
94.48
57.80
22.31
-10.83
-41.49
-69.02
-92.03
-109.40
-121.03
-128.02
-132.07
-134.61
-135.92
-134.87
-129.54
-116.81
-93.97
-60.30
-18.39
25.78
64.20
89.80
98.99
93.57
80.10
66.74
59.70
60.99
68.86
79.73
90.25
98.70
104.53
107.40
105.91
98.43
82.87
58.43
26.27
-10.18
-45.04
-71.52
-83.89
-79.95
-62.40
-38.64
-17.89
-8.03
-12.40
-28.65
-50.26
-69.90
-82.88
-88.46
-88.44
-83.92
-73.61
-53.46
-19.83
26.95
80.94
132.02
169.45
185.35
178.35
153.15
117.19
77.67
39.07
3.33
-28.79
-56.90
-80.26
-98.23
-110.92
-119.30
-124.73
-128.46
-130.73
-130.53
-125.98
-114.18
-92.36
-59.68
-18.87
23.63
59.17
80.23
83.57
72.09
53.92
38.78
33.62
39.95
54.11
70.17
83.19
91.07
94.59
95.69
95.41
93.15
86.93
74.42
54.67
29.05
1.67
-22.34
-38.52
-45.00
-42.97
-36.22
-29.52
-26.66
-29.57
-38.06
-50.74
-65.68
-80.41
-91.52
-94.59
-85.20
-60.90
-23.17
22.15
66.30
100.27
117.72
117.18
101.32
74.97
42.86
8.35
-25.96
-58.03
-85.60
-106.29
-119.04
-124.76
-126.20
-126.49
-128.15
-131.61
-135.30
-136.46
-132.20
-119.88
-97.74
-65.10
-22.88
25.54
74.25
115.55
142.14
150.21
141.33
122.00
100.92
85.41
78.68
79.60
84.54
89.60
92.67
93.36
91.66
86.35
75.24
55.81
28.30
-2.48
-28.18
-39.73
-32.83
-11.08
14.94
32.50
32.65
14.53
-14.89
-44.86
-66.42
-75.74
-74.34
-66.24
-54.80
-41.25
-25.99
-10.79
0.67
4.91
1.34
-6.54
-11.77
-7.60
8.99
35.27
63.51
84.07
89.88
78.88
54.36
23.05
-8.46
-35.71
-57.09
-73.13
-85.29
-94.62
-101.35
-105.28
-106.06
-103.60
-98.03
-89.40
-76.67
-57.91
-31.66
1.41
37.27
69.06
89.46
93.72
82.53
62.03
41.17
27.87
26.14
35.00
50.18
66.29
79.15
86.59
87.56
81.79
68.49
47.33
20.08
-8.97
-32.77
-44.03
-38.23
-16.30
14.91
44.31
61.07
58.63
37.22
3.32
-33.43
-64.61
-86.19
-98.75
-105.03
-106.57
-101.98
-87.76
-61.04
-22.70
21.47
62.02
89.41
97.81
87.26
62.95
31.89
0.39
-27.95
-52.27
-72.60
-89.21
-102.00
-110.84
-115.95
-118.22
-118.44
-117.02
-113.50
-106.89
-95.08
-75.71
-47.01
-8.95
35.53
80.53
118.36
141.91
147.75
137.71
118.07
96.77
80.18
71.06
68.84
71.15
75.62
80.75
85.43
88.21
86.44
77.47
58.98
31.00
-2.95
-36.64
-61.81
-71.40
-62.38
-37.62
-5.51
22.72
37.05
32.49
10.58
-21.52
-54.28
-79.81
-94.17
-98.18
-95.72
-90.39
-83.23
-71.51
-50.91
-18.86
22.93
67.91
106.80
130.72
135.12
121.38
94.97
62.91
30.74
1.07
-25.26
-48.45
-68.30
-84.26
-95.78
-103.05
-106.99
-108.69
-108.81
-106.84
-101.30
-89.66
-69.42
-40.06
-4.32
31.68
60.25
75.20
74.67
62.32
45.91
33.58
30.18
35.63
46.09
57.11
66.27
73.75
81.04
88.77
95.20
96.56
89.22
70.83
42.00
6.54
-29.55
-59.19
-75.98
-75.84
-58.56
-28.53
5.73
33.67
46.10
38.18
11.54
-26.18
-64.63
-94.92
-112.58
-118.61
-117.25
-111.03
-98.87
-76.98
-42.27
3.93
54.65
99.11
126.65
131.59
115.35
84.74
48.64
14.06
-15.65
-40.27
-61.46
-80.53
-97.60
-111.49
-120.91
-124.94
-123.27
-116.56
-105.16
-88.91
-66.90
-37.56
-0.19
43.23
87.49
124.76
147.51
151.87
139.34
116.28
91.02
70.41
57.48
51.59
50.45
51.83
54.89
59.22
63.40
64.04
56.83
38.05
7.78
-28.73
-62.17
-81.88
-80.63
-57.52
-18.69
24.52
59.38
75.80
69.10
40.82
-1.93
-49.21
-91.01
-119.64
-131.45
-127.87
-113.97
-96.09
-78.86
-63.09
-46.11
-23.74
6.79
44.37
83.70
117.32
138.55
143.34
132.59
110.63
82.90
53.78
25.34
-1.77
-27.21
-50.06
-68.78
-81.69
-88.13
-88.68
-84.84
-78.43
-70.33
-59.59
-44.01
-21.73
7.05
38.46
65.63
81.37
81.16
66.04
42.38
19.08
3.77
0.13
7.31
21.21
36.99
50.79
60.48
65.00
63.62
55.79
40.92
19.47
-5.84
-30.24
-47.40
-52.05
-42.73
-23.14
-1.14
14.08
16.06
3.45
-19.78
-46.42
-69.72
-85.99
-95.42
-100.39
-102.74
-101.65
-93.67
-74.59
-42.25
1.15
48.98
91.91
121.15
131.58
123.70
102.42
74.00
43.95
15.40
-10.65
-33.62
-52.88
-67.52
-77.10
-82.20
-84.23
-84.73
-84.79
-84.35
-82.22
-76.62
-64.91
-44.91
-16.18
18.86
54.71
83.97
100.10
99.85
85.31
63.33
42.41
29.34
26.84
33.58
45.72
59.01
70.51
78.50
82.06
80.18
71.70
55.61
31.82
2.43
-27.47
-51.10
-61.70
-56.01
-36.62
-11.52
8.65
15.33
5.41
-17.93
-47.29
-74.95
-96.46
-111.62
-122.47
-130.27
-133.00
-125.78
-103.50
-64.36
-11.86
45.44
96.84
133.13
149.09
145.05
125.91
97.95
65.91
32.57
-0.88
-33.37
-62.49
-85.65
-100.87
-108.21
-109.62
-108.05
-105.85
-103.52
-99.82
-91.96
-76.87
-51.95
-16.20
28.96
79.11
127.26
164.96
185.15
184.92
166.78
137.81
106.87
81.18
64.23
55.88
53.71
54.95
57.55
60.17
61.38
59.06
51.04
35.29
11.71
-16.45
-43.46
-62.02
-66.82
-57.24
-38.16
-18.45
-7.11
-9.53
-25.27
-49.15
-73.88
-93.64
-106.04
-111.59
-112.94
-112.63
-111.57
-107.68
-97.39
-77.38
-46.73
-8.10
32.41
66.90
88.29
93.59
84.59
65.81
42.28
17.05
-9.30
-36.57
-63.97
-88.83
-107.38
-116.68
-116.46
-109.17
-98.78
-89.23
-81.79
-75.05
-65.44
-48.67
-21.38
17.67
66.96
121.85
174.57
215.99
237.91
236.07
212.06
173.14
129.60
90.97
62.70
45.21
35.43
29.56
25.41
23.01
23.49
27.32
33.29
38.80
41.27
39.60
34.71
28.94
25.12
25.17
29.24
35.49
41.19
43.72
41.71
35.52
26.86
17.91
10.17
3.87
-2.33
-10.69
-23.40
-41.80
-65.78
-94.70
-127.27
-161.05
-191.98
-214.57
-223.09
-213.94
-188.15
-150.81
-110.20
-74.72
-49.86
-36.77
-33.05
-34.85
-39.19
-44.94
-51.89
-60.03
-68.51
-75.67
-79.91
-80.58
-78.28
-74.36
-70.39
-66.80
-63.03
-57.64
-49.03
-36.26
-19.53
-0.24
19.45
37.35
52.04
63.04
70.90
76.75
81.78
86.65
91.38
95.37
97.81
98.24
96.73
94.03
91.37
89.94
90.47
92.99
96.81
100.89
104.27
106.46
107.59
108.37
109.72
112.58
117.77
125.80
136.50
148.56
159.36
165.33
163.03
150.57
128.63
100.30
70.01
41.70
17.66
-1.75
-17.33
-30.00
-40.08
-47.37
-51.72
-53.54
-53.97
-54.62
-57.09
-62.60
-71.95
-85.25
-101.91
-120.61
-138.91
-154.17
-164.11
-167.33
-163.55
-153.27
-137.40
-116.95
-92.99
-66.82
-40.23
-15.27
6.11
22.54
33.47
39.36
41.44
41.32
40.54
40.21
40.66
41.58
42.10
41.30
38.51
33.59
26.88
19.07
10.82
2.47
-5.92
-14.58
-23.88
-34.35
-46.70
-61.49
-78.75
-97.22
-114.13
-125.66
-128.36
-120.89
-104.89
-84.44
-64.33
-48.02
-36.25
-28.29
-22.79
-18.81
-16.11
-14.59
-13.44
-10.94
-5.18
4.81
18.00
31.90
43.86
52.41
58.02
62.55
67.97
75.12
83.07
89.51
91.98
88.83
79.42
63.79
41.98
14.27
-17.95
-51.27
-80.30
-99.06
-103.28
-92.46
-69.67
-41.12
-13.49
8.51
23.32
31.91
36.28
38.31
38.65
37.80
36.84
37.80
43.40
56.29
77.88
107.73
142.49
175.76
199.28
205.17
188.99
151.59
98.81
39.14
-19.43
-71.62
-114.97
-148.39
-170.43
-178.95
-172.35
-151.56
-121.30
-89.39
-64.09
-50.90
-50.61
-59.44
-70.89
-78.70
-79.37
-73.07
-62.78
-52.61
-45.82
-43.74
-45.47
-48.58
-50.09
-47.37
-38.68
-23.47
-2.40
22.80
49.26
73.56
92.50
103.66
105.92
99.34
84.93
64.31
39.46
12.55
-14.17
-38.57
-59.04
-74.73
-85.37
-91.51
-93.92
-93.20
-89.52
-82.62
-71.96
-57.14
-38.31
-16.34
7.20
30.47
51.82
70.16
84.84
96.20
105.32
113.84
123.72
136.80
154.11
175.11
197.27
216.54
228.63
230.64
222.25
205.81
185.23
164.37
145.63
129.47
114.95
100.66
85.61
69.38
52.19
34.66
17.79
3.01
-8.00
-13.78
-13.72
-8.55
-0.60
6.52
8.84
2.86
-13.64
-41.25
-78.79
-123.19
-169.64
-212.09
-244.44
-262.03
-263.20
-249.91
-227.10
-200.94
-176.61
-156.84
-141.58
-128.97
-116.49
-101.73
-82.60
-57.27
-24.54
15.64
61.40
108.81
152.72
188.15
211.65
222.02
219.88
206.70
184.14
153.68
116.99
76.21
33.96
-7.14
-45.36
-80.70
-115.28
-152.26
-193.91
-239.56
-284.54
-320.97
-340.56
-338.04
-312.68
-269.98
-219.59
-171.42
-132.27
-104.31
-85.95
-74.20
-66.68
-62.23
-60.52
-60.90
-61.53
-59.87
-53.69
-41.84
-24.52
-2.99
21.47
48.20
77.67
111.11
148.97
189.89
230.09
264.07
286.46
294.07
287.16
269.30
245.91
222.10
201.08
183.72
169.19
156.12
143.54
130.94
118.06
104.46
89.51
72.80
54.59
35.99
18.72
4.53
-5.54
-11.50
-14.25
-15.19
-15.54
-16.08
-17.04
-18.42
-20.25
-22.65
-25.77
-29.62
-33.97
-38.45
-42.73
-46.53
-49.60
-51.65
-52.24
-51.01
-47.83
-43.01
-37.15
-31.03
-25.34
-20.65
-17.56
-16.73
-18.82
-24.15
-32.43
-42.68
-53.48
-63.39
-71.31
-76.54
-78.79
-77.99
-74.35
-68.40
-60.98
-53.03
-45.28
-37.97
-30.81
-23.26
-15.00
-6.17
2.63
10.67
17.48
23.13
28.12
33.02
38.13
43.26
47.87
51.46
53.84
55.33
56.55
58.14
60.40
63.16
65.89
67.95
69.02
69.26
69.45
70.66
73.84
79.35
86.65
94.41
101.02
105.33
107.24
107.85
108.99
112.38
118.93
128.26
138.77
147.94
152.86
150.82
139.98
120.21
93.37
63.07
33.55
8.10
-12.28
-29.05
-45.20
-63.68
-85.96
-111.78
-139.60
-167.94
-196.28
-225.52
-257.40
-293.76
-335.40
-380.96
-426.29
-464.58
-487.91
-489.88
-468.18
-425.59
-369.22
-307.86
-247.64
-192.24
-142.44
-97.53
-56.98
-22.22
5.53
26.23
41.69
55.38
71.26
92.40
120.27
154.49
193.21
233.77
272.93
307.05
332.53
346.03
345.13
328.84
297.78
254.25
201.91
145.74
91.26
43.72
6.85
-17.85
-31.40
-36.86
-38.16
-38.61
-39.95
-42.32
-44.53
-45.23
-44.12
-42.15
-41.70
-46.05
-58.42
-80.83
-112.93
-151.06
-188.58
-217.33
-229.96
-222.57
-195.94
-155.09
-106.90
-58.23
-13.71
24.80
57.63
86.16
111.88
135.67
157.42
175.50
186.79
187.94
177.07
155.76
129.43
105.76
91.55
90.26
100.91
119.56
142.90
169.31
198.21
227.68
252.05
262.99
252.62
217.67
161.70
94.99
30.54
-20.78
-53.86
-69.81
-73.67
-71.19
-66.08
-59.02
-48.88
-34.69
-17.27
1.06
17.41
29.51
36.28
38.22
37.36
35.94
34.95
33.70
29.99
20.84
3.70
-22.78
-57.89
-98.31
-139.59
-177.28
-208.29
-231.47
-247.31
-255.06
-255.46
-252.92
-250.89
-251.37
-252.67
-250.96
-240.86
-217.46
-178.91
-126.85
-68.12
-11.53
35.14
67.99
87.42
96.64
98.87
96.05
88.11
74.64
57.21
39.05
24.23
16.13
16.78
26.33
43.20
63.86
83.20
95.55
96.03
82.53
56.82
24.70
-5.88
-27.78
-37.38
-35.32
-24.95
-10.27
6.32
23.83
41.87
59.36
73.60
81.26
79.61
68.66
51.54
33.59
20.24
13.98
13.29
13.61
10.10
0.32
-14.50
-30.35
-43.01
-49.91
-51.51
-50.11
-47.78
-45.39
-42.81
-40.32
-39.20
-40.51
-43.31
-43.28
-34.21
-11.38
25.70
71.88
117.96
153.70
171.89
171.33
156.00
132.26
105.87
79.69
54.40
29.82
6.44
-13.93
-29.28
-38.39
-41.11
-37.64
-28.45
-14.04
3.82
21.07
31.96
30.65
14.08
-15.79
-51.41
-82.29
-99.12
-97.76
-80.13
-52.82
-23.47
2.09
20.91
32.29
35.92
31.79
20.65
5.90
-6.19
-8.84
2.05
24.11
48.31
62.81
58.91
35.62
0.04
-36.64
-65.22
-82.53
-91.98
-100.06
-111.65
-126.53
-139.51
-143.26
-131.89
-103.51
-60.70
-9.77
41.93
86.00
116.09
129.52
127.27
112.79
90.01
62.49
32.91
3.79
-22.14
-42.58
-56.22
-63.37
-65.92
-66.39
-67.01
-68.47
-69.61
-67.07
-56.83
-36.30
-6.46
27.31
56.43
72.35
69.85
50.15
20.48
-8.95
-29.27
-36.32
-31.19
-18.57
-3.95
8.96
18.45
23.32
22.11
13.66
-1.81
-21.23
-38.09
-44.45
-33.91
-4.01
41.96
95.64
145.92
181.97
195.92
184.81
150.81
99.13
38.83
-20.80
-72.03
-109.93
-130.70
-131.06
-109.19
-66.53
-9.29
52.04
104.56
137.59
146.75
135.18
111.02
82.99
57.08
35.20
16.64
-0.46
-17.05
-32.32
-44.34
-51.42
-52.85
-49.06
-40.67
-28.13
-12.09
6.16
23.51
35.14
36.06
23.46
-1.53
-33.04
-62.61
-82.64
-88.90
-81.48
-63.81
-40.74
-16.55
5.57
23.34
34.96
38.66
33.69
20.97
3.46
-13.72
-24.85
-26.10
-17.26
-2.36
11.73
18.15
12.72
-4.62
-29.91
-57.30
-81.41
-98.75
-109.34
-116.45
-122.34
-126.34
-124.45
-110.87
-81.29
-35.83
19.63
74.88
118.04
141.23
143.20
128.77
106.03
81.97
60.09
40.64
21.87
2.66
-16.12
-31.86
-42.11
-45.84
-43.84
-38.04
-29.97
-19.73
-6.26
11.07
30.49
47.22
55.04
49.20
28.93
-0.99
-32.01
-55.37
-65.29
-60.80
-45.02
-23.41
-1.30
17.43
30.04
34.70
30.30
16.97
-2.62
-22.89
-36.11
-35.20
-17.43
13.68
49.06
77.48
89.98
83.47
61.13
30.28
-1.46
-28.31
-48.28
-62.86
-74.88
-85.64
-93.63
-94.23
-81.88
-53.31
-9.86
41.46
90.42
126.35
142.76
139.72
122.79
99.61
76.18
54.95
35.39
15.70
-4.64
-24.09
-39.48
-48.06
-48.99
-43.62
-34.51
-23.88
-12.34
0.70
15.91
31.99
45.08
49.99
42.50
22.46
-5.58
-34.07
-55.58
-65.32
-62.45
-49.34
-29.95
-8.44
11.61
26.50
32.85
27.77
10.37
-16.50
-46.26
-69.42
-76.79
-63.67
-32.34
7.89
43.63
62.56
58.13
31.88
-7.73
-49.31
-82.99
-103.18
-110.10
-108.03
-102.24
-96.15
-89.65
-79.82
-61.92
-32.64
7.48
53.51
97.47
131.46
150.04
152.41
142.41
125.67
106.33
86.12
64.30
40.14
14.55
-9.19
-26.99
-35.98
-35.88
-28.74
-17.35
-3.67
11.60
27.87
43.23
53.94
55.38
44.46
21.55
-8.11
-36.38
-55.62
-61.76
-55.37
-40.35
-21.81
-4.13
9.77
17.61
17.46
7.73
-11.46
-36.43
-60.25
-74.10
-70.68
-48.01
-10.70
30.81
64.13
79.14
71.62
44.21
4.44
-38.74
-78.57
-111.73
-137.26
-153.97
-158.75
-147.07
-115.51
-64.78
-1.33
63.72
117.85
151.07
160.04
148.53
124.84
97.25
71.30
48.80
28.67
9.59
-8.83
-25.46
-38.28
-45.79
-47.74
-45.10
-38.96
-29.95
-17.55
-1.02
18.93
38.94
53.29
56.15
44.23
19.38
-11.64
-39.77
-57.57
-61.86
-54.08
-38.54
-20.20
-2.63
12.34
23.06
27.50
23.15
8.67
-13.59
-37.12
-52.19
-49.61
-25.55
16.20
64.63
105.04
124.58
116.78
82.85
30.27
-30.67
-90.00
-139.27
-171.61
-181.60
-166.03
-125.38
-65.13
4.80
72.35
126.10
158.23
167.02
155.91
131.13
99.65
67.10
37.72
13.95
-3.66
-15.82
-24.37
-31.49
-38.41
-45.29
-51.04
-53.78
-51.53
-42.71
-26.16
-2.40
25.64
52.42
70.97
75.35
63.40
37.68
5.54
-23.83
-43.13
-49.55
-44.70
-32.73
-18.02
-3.39
9.92
21.11
29.25
32.62
29.92
20.83
6.36
-10.90
-27.40
-39.99
-46.46
-46.33
-41.10
-33.82
-28.05
-26.70
-30.94
-39.79
-50.61
-60.65
-68.61
-75.12
-81.16
-86.37
-86.94
-76.79
-50.82
-8.44
44.62
97.83
139.19
160.47
160.35
143.90
119.45
93.93
70.67
49.71
29.45
9.08
-10.23
-25.75
-35.02
-37.20
-33.07
-24.21
-11.92
3.22
20.40
37.55
50.75
54.99
46.54
24.93
-5.34
-36.25
-59.40
-69.14
-64.35
-47.97
-25.33
-2.00
17.79
31.39
37.02
33.75
21.37
1.46
-21.37
-40.30
-47.48
-37.94
-12.71
20.75
50.70
66.10
60.96
36.59
0.31
-38.52
-72.86
-100.41
-122.71
-141.77
-156.52
-161.86
-150.93
-119.11
-67.45
-3.68
59.92
111.02
140.82
147.58
136.32
115.38
92.07
70.30
50.21
29.91
8.54
-13.10
-32.24
-45.65
-51.60
-50.40
-43.91
-33.97
-21.53
-6.31
11.86
31.43
48.30
56.90
52.77
34.93
7.49
-21.80
-44.63
-55.40
-52.74
-38.97
-18.58
3.72
24.08
39.46
46.82
43.67
28.43
2.63
-27.97
-54.35
-66.44
-58.17
-30.94
6.02
39.16
56.27
51.70
28.10
-5.75
-39.26
-65.02
-80.25
-86.23
-86.08
-82.95
-78.78
-74.33
-69.14
-61.03
-46.83
-23.38
10.35
51.65
94.25
130.68
154.98
163.56
157.73
141.35
118.68
92.65
64.33
34.55
5.02
-21.12
-40.49
-50.87
-52.28
-46.40
-35.45
-20.74
-2.53
18.67
40.50
58.21
66.32
60.44
40.56
11.70
-17.92
-40.12
-50.06
-47.23
-35.03
-18.25
-1.42
11.97
19.17
17.76
6.22
-14.84
-41.51
-66.36
-80.30
-75.50
-49.10
-5.08
45.86
89.54
112.85
108.41
77.25
27.74
-27.98
-79.21
-120.02
-149.18
-167.18
-173.19
-164.00
-135.98
-88.65
-27.30
37.00
91.30
124.74
133.52
121.56
97.54
70.49
46.10
25.88
8.51
-8.09
-24.63
-39.72
-50.97
-56.37
-55.27
-48.57
-37.66
-23.08
-4.30
19.64
48.26
78.17
103.06
115.93
111.66
90.61
58.80
25.54
-0.36
-13.77
-14.45
-5.98
6.59
18.60
26.26
26.74
17.56
-2.22
-30.19
-60.08
-82.37
-87.96
-72.48
-38.88
2.91
39.38
58.94
56.22
33.52
-0.88
-36.90
-66.50
-85.44
-93.80
-94.58
-91.67
-88.27
-85.67
-82.93
-76.56
-62.54
-38.43
-5.19
32.56
68.26
95.66
110.71
113.38
106.41
92.97
75.19
53.55
28.29
1.30
-23.60
-41.83
-49.75
-46.13
-32.33
-11.13
13.91
39.08
60.48
74.12
76.83
67.50
47.52
21.67
-3.62
-22.76
-32.79
-33.68
-27.27
-16.08
-2.46
11.38
22.87
28.36
24.28
8.28
-18.48
-50.17
-77.91
-91.79
-85.16
-57.29
-14.35
32.33
69.88
88.60
84.84
61.06
24.27
-17.13
-56.39
-89.63
-115.59
-134.51
-146.43
-148.36
-135.68
-104.71
-55.93
4.69
66.83
119.27
152.86
164.12
156.30
136.22
111.07
85.35
60.40
36.08
12.10
-10.59
-29.93
-43.52
-50.32
-50.99
-47.48
-41.31
-32.51
-19.30
0.38
26.83
56.64
82.54
96.03
90.78
66.88
31.37
-4.56
-30.37
-40.36
-35.04
-19.97
-2.27
12.37
21.05
22.54
16.42
2.43
-18.16
-40.77
-58.33
-63.63
-53.31
-30.91
-5.96
10.27
9.98
-7.75
-37.02
-68.75
-95.33
-113.44
-123.26
-127.41
-128.60
-128.01
-125.10
-118.00
-103.84
-80.17
-44.86
1.57
54.81
107.17
150.18
177.52
185.91
177.10
156.25
128.94
98.98
68.51
38.60
10.74
-12.87
-30.14
-39.87
-42.49
-39.56
-32.82
-22.54
-7.47
14.07
41.94
72.45
98.80
113.04
108.99
86.41
51.50
14.33
-15.54
-32.36
-35.96
-29.89
-19.35
-9.06
-2.61
-3.22
-13.38
-33.84
-61.70
-89.52
-107.25
-105.76
-81.21
-37.41
14.97
62.12
91.91
97.95
80.66
46.22
3.47
-39.18
-75.39
-101.13
-115.64
-120.98
-120.70
-117.88
-112.95
-103.71
-85.69
-55.15
-12.29
37.68
86.19
124.57
146.70
151.39
142.45
125.70
105.63
84.29
61.36
36.56
11.09
-11.84
-28.32
-35.77
-34.06
-25.14
-11.63
4.45
22.20
40.79
58.16
70.76
74.13
65.09
43.39
13.41
-17.53
-42.07
-55.52
-56.82
-48.03
-32.75
-14.90
1.84
14.22
18.72
12.52
-5.63
-33.60
-65.25
-91.96
-104.36
-96.25
-67.30
-23.86
22.80
60.07
78.81
75.69
53.47
19.27
-18.96
-55.21
-86.29
-111.72
-132.80
-148.59
-155.15
-147.08
-120.37
-75.51
-18.60
39.91
88.68
118.70
127.30
118.43
99.26
76.82
55.15
34.96
15.47
-4.15
-23.26
-39.41
-49.97
-53.50
-50.32
-42.31
-31.41
-18.05
-1.09
21.38
49.95
81.84
110.53
127.96
127.27
107.24
73.19
34.83
2.23
-17.88
-23.82
-18.40
-6.94
5.36
14.78
18.35
13.85
-0.10
-22.45
-48.36
-69.90
-77.71
-64.95
-30.67
18.78
71.32
113.12
133.73
129.42
103.35
63.52
19.08
-22.61
-57.74
-85.62
-108.65
-128.59
-144.48
-152.41
-147.09
-124.75
-85.99
-36.79
13.81
55.03
79.57
86.53
80.23
67.57
53.91
41.15
28.33
13.48
-4.12
-22.51
-37.69
-46.00
-45.71
-37.46
-23.43
-6.02
13.18
33.12
52.45
68.58
77.62
75.98
61.80
37.22
7.92
-19.11
-38.39
-47.34
-46.36
-37.69
-24.31
-9.01
5.73
17.05
21.75
16.69
0.24
-26.15
-57.50
-85.61
-101.03
-96.20
-68.43
-22.08
31.87
78.87
105.68
104.72
76.40
28.25
-28.82
-84.55
-131.48
-164.64
-181.50
-179.11
-154.45
-106.94
-40.84
34.16
105.01
159.89
190.43
195.24
179.61
152.08
120.85
91.28
65.53
43.66
24.51
7.05
-9.21
-23.60
-34.91
-42.01
-43.90
-39.72
-28.57
-9.78
16.03
46.18
75.27
96.01
101.75
89.62
61.74
25.82
-8.03
-31.59
-41.50
-39.67
-31.16
-21.14
-12.65
-6.02
-0.16
5.46
9.77
10.24
3.75
-11.50
-34.47
-60.52
-82.88
-95.07
-93.56
-78.90
-55.30
-29.11
-6.84
6.11
6.05
-8.81
-38.07
-78.30
-122.62
-161.13
-183.47
-182.29
-156.05
-109.56
-52.15
5.63
55.07
89.94
107.96
110.18
99.23
78.12
50.20
19.33
-10.11
-33.88
-49.03
-55.12
-54.25
-49.90
-45.48
-42.49
-39.81
-34.41
-22.53
-0.87
32.43
77.14
130.29
185.21
233.00
264.28
272.16
254.99
217.35
168.59
119.20
76.92
44.53
20.69
2.41
-12.34
-23.36
-29.15
-28.77
-23.30
-15.92
-10.76
-10.57
-15.62
-23.71
-31.37
-35.68
-35.41
-31.62
-27.07
-25.09
-28.15
-37.39
-52.85
-73.70
-98.15
-123.05
-143.73
-154.16
-150.23
-131.49
-101.92
-68.71
-39.52
-19.46
-9.60
-7.58
-9.73
-13.30
-17.24
-21.76
-27.10
-32.57
-36.66
-37.96
-36.12
-31.84
-26.77
-22.64
-20.30
-19.57
-19.43
-18.59
-16.06
-11.57
-5.57
1.04
7.33
12.75
17.22
21.01
24.63
28.52
33.00
38.24
44.21
50.72
57.43
63.85
69.46
73.84
76.97
79.27
81.49
84.44
89.00
95.90
105.55
117.72
131.05
142.98
150.09
149.16
138.45
118.57
92.44
64.25
38.02
16.42
0.43
-10.16
-15.99
-17.50
-14.90
-8.57
0.42
9.99
17.15
18.64
11.82
-4.44
-29.17
-59.36
-90.55
-118.16
-138.85
-151.22
-155.67
-153.56
-146.29
-134.80
-119.76
-102.05
-83.10
-64.75
-48.71
-35.97
-26.47
-19.29
-13.08
-6.72
0.27
7.58
14.32
19.57
22.83
24.28
24.72
25.26
26.81
29.69
33.42
36.97
39.20
39.33
37.37
34.12
30.97
29.20
29.29
30.64
31.57
30.29
25.50
17.09
6.23
-5.01
-14.51
-21.14
-25.32
-28.58
-32.81
-39.16
-47.39
-56.23
-63.89
-68.90
-70.61
-68.95
-64.10
-56.55
-47.81
-40.91
-39.96
-47.63
-62.94
-80.44
-91.71
-88.93
-68.70
-33.85
8.48
47.57
75.13
88.41
89.62
83.09
72.55
59.75
45.08
29.22
13.71
1.42
-5.06
-4.80
0.78
8.31
13.21
11.52
1.52
-15.24
-33.90
-48.21
-53.05
-46.84
-32.15
-14.32
1.15
11.04
15.38
16.85
18.66
22.82
28.93
35.10
39.35
40.82
40.18
39.38
40.94
46.94
57.90
72.23
86.27
95.26
95.02
83.48
61.53
32.68
1.70
-27.05
-50.92
-69.11
-82.11
-90.89
-96.40
-99.69
-102.05
-104.91
-108.98
-113.51
-116.22
-114.31
-106.30
-93.42
-79.60
-69.91
-67.88
-73.43
-82.66
-89.56
-88.83
-78.24
-59.10
-35.01
-9.89
13.81
35.64
56.57
77.88
100.23
123.08
144.94
163.77
177.53
184.66
184.53
177.54
164.94
148.26
128.79
107.28
84.29
60.76
38.51
20.00
7.31
1.02
-0.29
0.43
0.18
-2.57
-7.11
-10.93
-11.21
-6.38
2.99
14.58
25.57
33.99
39.46
42.91
45.74
48.86
52.20
54.78
55.28
52.50
45.83
35.40
22.14
7.59
-6.41
-18.24
-27.00
-32.78
-36.56
-39.73
-43.56
-48.76
-55.51
-63.55
-72.47
-81.73
-90.76
-98.89
-105.46
-110.00
-112.38
-112.90
-112.17
-111.03
-110.27
-110.44
-111.61
-113.19
-113.88
-111.91
-105.45
-93.17
-74.71
-50.77
-22.97
6.62
35.85
62.80
85.91
103.97
116.17
122.16
122.15
116.99
108.06
97.04
85.56
74.92
65.88
58.67
53.03
48.46
44.43
40.53
36.60
32.68
28.88
25.27
21.82
18.49
15.26
12.27
9.79
8.12
7.45
7.72
8.69
9.99
11.29
12.41
13.36
14.31
15.45
16.93
18.82
21.12
23.77
26.68
29.81
33.06
36.28
39.24
41.73
43.68
45.21
46.67
48.45
50.87
54.05
57.96
62.45
67.41
72.65
77.73
81.83
83.79
82.48
77.21
68.11
55.95
41.88
26.91
11.61
-3.75
-18.92
-33.20
-45.45
-54.45
-59.67
-61.73
-62.59
-65.07
-72.04
-85.47
-105.83
-131.94
-160.82
-188.91
-212.74
-229.60
-238.05
-237.90
-229.90
-215.15
-194.65
-169.03
-138.93
-105.41
-70.33
-36.77
-8.33
11.85
22.26
23.87
19.85
14.58
13.04
19.48
36.30
63.01
95.52
126.33
146.27
147.64
127.92
91.20
48.70
14.23
-2.04
1.99
20.16
42.15
58.85
66.43
66.65
64.06
62.45
63.18
65.89
70.08
75.86
82.78
88.47
88.23
76.51
49.62
8.27
-41.64
-90.50
-128.35
-148.64
-149.99
-135.40
-110.13
-79.61
-48.37
-19.79
3.74
20.89
31.59
37.24
40.19
42.85
46.67
51.61
56.48
59.78
60.23
57.69
53.18
48.07
43.59
39.96
36.49
32.02
25.24
14.79
-0.65
-22.09
-49.29
-78.83
-105.03
-120.85
-120.55
-102.56
-70.30
-30.87
8.26
41.89
68.07
86.35
95.50
92.41
73.48
37.93
-9.88
-60.76
-104.14
-131.96
-142.13
-138.31
-127.09
-114.63
-103.76
-93.80
-81.31
-64.07
-41.53
-15.30
11.79
36.64
56.72
71.10
80.28
85.90
89.49
92.23
94.36
95.09
93.16
87.15
75.62
57.51
32.78
2.91
-28.16
-54.43
-69.66
-69.19
-53.61
-28.43
-2.10
17.55
26.59
26.00
20.44
15.72
16.23
23.04
34.57
47.07
55.56
55.17
42.91
18.86
-13.39
-47.64
-77.83
-99.74
-112.24
-116.75
-115.34
-109.25
-98.44
-82.44
-61.07
-36.58
-12.20
9.28
26.64
40.49
52.58
64.57
77.08
88.90
97.95
102.35
100.90
92.93
78.59
57.91
32.00
4.00
-20.74
-36.16
-37.59
-24.00
-0.15
25.10
42.55
46.76
37.73
20.24
1.06
-14.35
-23.48
-26.44
-24.15
-17.07
-6.03
6.67
15.79
14.72
-1.14
-30.91
-66.89
-97.64
-113.45
-111.31
-96.23
-78.11
-65.83
-62.39
-63.84
-62.19
-51.12
-29.46
-1.34
26.75
49.70
65.93
76.93
85.63
93.90
101.46
106.71
107.51
102.50
91.35
74.69
52.89
26.66
-2.54
-32.00
-57.16
-73.04
-75.79
-65.99
-48.67
-31.41
-20.67
-19.32
-25.73
-35.27
-43.39
-47.77
-48.56
-46.91
-43.73
-38.80
-32.19
-25.24
-19.85
-16.62
-13.35
-6.10
8.15
28.39
48.77
60.89
58.54
41.59
16.33
-6.73
-18.71
-16.55
-3.30
14.72
31.79
45.20
55.08
62.67
68.95
73.70
75.92
75.14
71.43
65.45
58.09
49.67
39.77
27.35
10.97
-9.53
-31.94
-51.75
-63.84
-64.88
-54.87
-38.11
-21.21
-10.07
-7.27
-11.76
-20.28
-29.26
-36.47
-41.76
-46.40
-51.38
-56.50
-60.33
-60.19
-53.21
-37.65
-14.39
11.96
34.47
46.03
42.63
25.52
1.09
-22.02
-36.17
-38.26
-30.25
-16.70
-1.81
12.62
26.80
41.38
55.90
67.69
72.88
67.96
52.16
28.42
3.24
-15.22
-20.02
-8.38
16.28
45.51
68.98
78.36
70.97
50.38
23.91
-0.99
-19.85
-32.02
-39.73
-45.95
-52.06
-57.66
-61.15
-61.03
-56.71
-48.45
-36.90
-22.36
-4.89
14.83
34.43
49.47
54.55
45.98
24.24
-5.26
-33.80
-52.75
-57.08
-47.40
-28.74
-7.53
11.72
27.57
40.75
52.38
62.28
69.09
70.96
66.83
56.57
40.80
20.59
-2.23
-24.52
-41.90
-50.09
-46.71
-32.66
-13.14
4.47
13.86
12.50
2.35
-11.74
-24.85
-34.15
-39.78
-43.89
-48.27
-53.25
-57.46
-58.81
-55.94
-48.52
-37.22
-23.26
-7.30
9.71
25.68
37.19
40.19
31.91
12.87
-12.43
-36.83
-53.11
-57.03
-48.77
-32.01
-11.43
9.56
29.37
47.48
63.11
74.77
80.71
79.67
71.80
58.33
40.84
21.52
2.95
-11.40
-17.71
-13.77
-0.30
18.64
36.60
47.14
46.52
34.78
15.29
-6.99
-28.10
-45.40
-57.89
-65.39
-68.06
-65.81
-58.91
-48.76
-37.86
-29.37
-25.87
-27.15
-29.45
-26.42
-12.86
11.57
40.74
64.00
71.11
57.83
28.62
-5.43
-31.20
-40.20
-31.95
-12.70
8.89
26.34
37.54
44.16
49.13
54.58
60.28
64.38
64.89
60.98
52.55
40.15
24.41
5.76
-14.98
-35.58
-52.23
-60.64
-58.20
-45.52
-27.50
-10.95
-1.34
-0.68
-6.89
-15.71
-23.29
-28.05
-30.34
-31.34
-31.72
-31.24
-29.54
-26.42
-21.74
-14.78
-4.27
9.99
25.98
38.86
42.63
33.30
11.83
-15.56
-39.88
-53.52
-53.63
-43.12
-27.87
-12.86
0.37
13.22
27.70
44.02
59.86
71.03
73.95
67.02
51.10
28.95
5.01
-15.89
-28.78
-30.06
-19.29
0.19
21.94
38.43
43.99
37.37
21.85
3.20
-13.41
-25.44
-33.54
-40.26
-47.38
-54.94
-61.02
-63.18
-59.78
-50.74
-37.21
-20.69
-2.38
16.45
33.64
45.76
48.82
40.17
20.49
-5.61
-30.98
-48.58
-54.29
-48.44
-34.81
-18.06
-1.31
14.34
29.00
42.44
53.44
60.26
61.26
55.79
44.45
28.59
10.68
-5.68
-16.20
-16.89
-5.95
14.61
39.13
60.05
70.52
67.57
53.01
31.96
10.15
-8.52
-22.69
-33.06
-41.07
-47.26
-51.26
-52.40
-50.48
-46.24
-40.46
-33.68
-24.99
-12.83
3.43
22.07
38.19
45.31
38.46
17.34
-12.69
-42.33
-62.24
-67.06
-57.52
-39.08
-18.45
-0.18
14.76
27.58
39.79
51.40
60.54
64.82
62.49
53.47
38.65
19.99
-0.23
-18.94
-32.42
-37.44
-32.44
-18.81
-0.82
15.17
23.93
23.37
15.21
3.38
-8.42
-18.59
-27.93
-37.86
-49.03
-59.95
-67.65
-69.41
-64.24
-53.10
-37.91
-20.88
-3.73
11.84
23.57
28.76
25.44
13.78
-3.25
-20.60
-32.80
-36.46
-31.41
-19.84
-4.80
11.47
27.59
42.52
54.76
62.14
62.31
54.00
38.15
18.23
-0.11
-10.48
-8.24
7.51
33.05
61.04
83.12
93.37
89.84
75.62
56.04
35.80
17.12
-0.19
-16.89
-32.68
-45.89
-54.34
-56.63
-53.23
-45.86
-36.40
-26.44
-17.35
-10.54
-7.43
-8.69
-13.25
-18.93
-23.54
-26.39
-28.82
-33.00
-39.96
-47.80
-52.46
-49.52
-37.31
-18.17
2.60
19.78
30.97
37.11
41.29
46.14
52.18
57.62
59.65
55.65
43.98
25.09
1.48
-21.90
-38.90
-44.13
-35.36
-15.15
9.75
30.41
39.88
36.04
22.06
4.05
-12.04
-23.29
-30.38
-35.85
-42.20
-49.86
-57.06
-61.10
-59.92
-53.05
-41.42
-26.64
-9.90
7.71
24.41
37.23
42.47
37.35
21.94
-0.16
-22.85
-39.45
-46.04
-42.43
-31.45
-16.75
-1.22
13.90
28.05
40.46
49.65
53.77
51.34
42.07
26.97
8.77
-8.02
-18.13
-17.13
-3.35
20.77
48.94
73.05
86.25
85.03
71.14
49.63
26.17
4.77
-12.97
-27.29
-38.87
-47.93
-54.09
-57.10
-57.09
-54.68
-50.47
-44.80
-37.04
-25.51
-8.64
13.41
37.77
58.63
69.07
64.28
44.37
15.02
-14.65
-35.42
-42.37
-36.40
-22.76
-7.63
4.93
14.17
21.50
28.49
35.42
40.62
42.21
39.12
31.30
19.33
4.36
-12.41
-28.86
-41.77
-47.36
-42.83
-28.14
-6.70
14.97
30.35
35.46
30.27
18.13
3.68
-9.50
-19.91
-27.63
-33.41
-37.43
-38.78
-36.23
-29.73
-20.87
-12.47
-6.95
-4.54
-3.15
-0.04
5.75
12.04
14.20
7.98
-7.48
-28.10
-46.28
-54.64
-49.75
-33.51
-11.56
9.75
26.30
37.06
43.41
47.34
50.14
52.35
53.48
52.84
49.95
44.65
36.37
24.37
8.10
-11.88
-32.74
-49.64
-57.32
-52.58
-36.07
-13.44
7.36
19.62
20.65
12.49
0.05
-11.87
-20.98
-27.77
-34.24
-41.66
-49.32
-54.83
-55.68
-50.75
-40.57
-26.52
-10.43
6.23
21.61
33.07
37.56
32.87
19.10
-0.63
-21.00
-36.18
-42.51
-39.62
-29.64
-15.64
-0.04
15.62
30.11
41.90
48.88
48.75
40.34
24.56
4.70
-13.68
-24.29
-22.50
-7.24
18.00
46.02
68.62
79.79
77.35
64.07
45.08
24.85
5.59
-12.69
-30.58
-47.53
-61.70
-70.36
-71.98
-67.18
-58.52
-48.78
-39.81
-31.81
-23.97
-15.16
-4.19
10.12
28.21
48.93
68.54
81.84
83.80
72.21
49.62
22.95
0.37
-12.63
-15.69
-12.66
-9.11
-8.81
-12.65
-19.42
-27.27
-34.66
-40.18
-41.54
-36.50
-23.80
-4.49
18.00
39.25
55.92
66.75
72.22
73.24
70.02
61.78
48.88
32.85
16.49
2.62
-7.56
-14.77
-21.07
-27.97
-35.39
-41.61
-44.13
-40.90
-30.52
-13.39
8.23
30.05
46.37
51.81
43.72
23.52
-3.48
-29.09
-46.32
-52.08
-47.68
-37.34
-25.39
-14.24
-4.25
5.10
13.63
19.81
21.75
18.73
12.09
4.71
-0.24
-0.87
2.31
6.91
9.46
6.59
-3.71
-21.21
-42.88
-63.25
-75.85
-75.50
-60.52
-33.96
-3.56
22.24
37.34
40.70
36.04
29.43
26.14
28.23
34.61
42.04
47.08
47.32
42.35
33.82
24.88
19.13
18.96
24.43
32.90
40.38
43.34
40.71
34.13
26.78
21.41
19.16
19.67
21.89
24.64
26.09
23.67
14.05
-5.80
-36.25
-74.33
-114.11
-148.51
-171.59
-180.60
-176.06
-160.64
-137.76
-110.50
-81.00
-52.14
-26.36
-5.13
11.42
24.32
35.16
44.95
53.92
61.00
64.56
63.06
55.44
41.57
23.12
3.75
-11.30
-16.66
-9.36
9.47
34.68
58.80
74.71
78.57
70.83
54.96
35.47
15.94
-1.42
-15.66
-26.03
-32.05
-33.69
-31.78
-27.86
-23.47
-19.86
-18.11
-18.76
-21.39
-23.87
-22.70
-14.67
0.86
20.42
36.91
42.78
34.31
13.93
-10.01
-27.65
-32.74
-25.48
-11.43
2.46
11.94
17.27
21.49
27.49
35.47
43.16
46.97
44.61
35.75
21.83
5.35
-10.99
-24.40
-32.01
-31.31
-21.17
-2.94
19.51
40.75
55.54
61.07
57.52
47.45
33.96
19.50
5.61
-6.82
-16.48
-21.32
-19.22
-8.90
8.30
27.85
42.71
45.57
31.86
2.15
-37.38
-77.31
-108.43
-125.25
-127.52
-119.05
-105.29
-90.50
-76.54
-62.77
-48.50
-33.38
-17.75
-2.45
11.89
24.87
36.14
45.45
52.02
54.28
50.63
40.23
24.22
6.86
-5.90
-8.14
3.31
26.65
55.16
80.05
94.05
93.93
82.08
64.05
45.31
28.78
14.39
0.79
-12.84
-25.29
-34.26
-37.74
-35.28
-27.90
-17.06
-4.23
9.25
21.16
27.70
24.74
10.29
-13.70
-41.08
-63.90
-76.25
-76.97
-69.70
-60.31
-53.15
-48.63
-44.21
-36.47
-23.86
-7.71
8.71
22.50
32.32
38.53
42.25
44.11
43.53
39.17
29.79
15.66
-0.52
-14.13
-19.82
-13.94
3.26
27.48
51.78
69.15
75.38
70.15
55.97
36.51
15.28
-5.09
-22.50
-34.99
-41.10
-40.43
-33.82
-23.07
-10.38
1.58
9.13
8.56
-2.38
-22.12
-43.98
-58.57
-58.46
-42.72
-18.36
2.88
10.87
2.67
-16.08
-34.78
-43.98
-40.41
-27.82
-13.09
-1.42
6.41
13.08
21.48
32.27
43.26
50.42
50.19
40.99
23.94
2.53
-17.89
-31.43
-33.15
-21.29
1.72
29.66
54.62
69.62
71.40
61.10
43.02
22.52
3.69
-11.55
-22.71
-30.28
-34.43
-34.85
-30.89
-22.54
-11.71
-2.09
1.74
-2.62
-13.24
-23.81
-26.60
-17.26
2.01
22.81
34.99
32.25
15.78
-6.81
-25.29
-32.97
-29.37
-18.97
-7.26
2.57
10.66
18.67
27.24
35.20
39.83
38.12
28.59
11.72
-9.32
-29.53
-43.13
-45.29
-34.33
-12.71
13.54
36.92
51.11
53.67
46.07
32.32
16.65
2.07
-10.31
-20.46
-28.14
-32.94
-34.20
-31.44
-24.55
-14.30
-2.97
5.60
7.41
0.53
-12.89
-26.96
-34.80
-32.56
-22.00
-9.86
-4.03
-8.84
-22.41
-37.74
-46.86
-45.43
-34.45
-18.62
-2.93
10.22
21.07
30.77
39.45
45.60
46.64
40.25
25.98
6.32
-13.38
-26.71
-28.20
-15.78
7.59
34.99
58.10
70.51
70.36
60.39
45.52
30.05
15.96
2.83
-10.40
-23.65
-35.17
-41.97
-41.57
-32.82
-16.68
3.69
22.82
34.31
32.84
16.72
-10.51
-41.05
-65.83
-78.45
-77.71
-67.65
-54.30
-42.97
-35.20
-28.78
-20.54
-8.57
5.92
19.89
30.13
34.95
34.53
30.25
23.59
15.83
8.24
2.64
1.24
6.18
18.23
36.17
56.64
75.23
87.82
92.10
87.47
76.12
61.10
44.84
28.74
13.26
-1.18
-13.88
-23.71
-29.35
-30.32
-27.30
-21.83
-14.72
-6.40
2.59
10.35
13.50
8.31
-6.80
-29.81
-55.31
-76.59
-89.13
-92.46
-89.68
-84.83
-80.06
-74.49
-65.21
-50.56
-31.40
-11.08
6.59
19.63
28.53
35.40
42.01
48.83
54.66
57.45
55.12
46.01
29.70
7.71
-16.05
-35.56
-44.43
-38.79
-19.33
8.32
35.40
53.20
56.77
46.63
27.97
7.57
-9.20
-19.84
-24.89
-26.36
-25.63
-22.67
-16.72
-8.19
0.02
3.41
-1.71
-14.78
-29.86
-37.94
-32.16
-12.34
13.87
34.63
40.23
28.30
4.89
-19.40
-34.75
-37.17
-28.92
-15.52
-1.57
11.17
22.96
34.07
43.44
48.34
45.42
33.30
14.08
-6.64
-21.15
-22.88
-9.17
17.10
48.11
74.32
88.55
88.25
76.50
59.32
42.16
27.71
15.49
3.67
-8.74
-20.83
-30.20
-33.96
-30.06
-18.48
-1.72
15.03
25.28
23.02
5.22
-26.44
-65.40
-102.43
-129.11
-140.91
-138.23
-125.26
-107.35
-88.39
-69.31
-49.89
-29.44
-8.22
12.02
29.17
41.59
48.85
51.76
51.89
50.09
45.88
38.00
25.57
9.87
-5.10
-13.78
-11.37
3.41
27.00
52.18
71.07
77.60
70.44
52.31
28.24
3.56
-17.91
-34.03
-43.98
-48.04
-47.22
-42.84
-36.27
-28.80
-21.74
-16.60
-14.34
-14.31
-13.40
-7.10
8.29
32.52
60.06
81.66
88.60
77.13
50.22
17.38
-10.69
-27.08
-30.81
-25.58
-16.49
-6.93
2.18
11.06
19.54
26.12
27.91
22.24
8.57
-10.68
-29.99
-42.47
-42.58
-28.41
-3.08
26.23
51.16
65.46
66.91
58.10
43.88
28.46
13.85
0.05
-13.65
-26.89
-37.76
-43.96
-43.98
-38.02
-27.45
-14.48
-2.38
5.05
4.54
-4.89
-20.38
-35.38
-42.85
-39.14
-26.58
-12.69
-6.21
-11.86
-27.44
-44.98
-55.30
-53.05
-39.45
-20.45
-2.73
9.58
15.98
18.03
17.30
14.68
10.71
6.54
4.55
7.80
18.42
36.18
58.10
79.42
95.13
101.93
99.10
87.96
72.00
54.55
37.66
22.16
8.23
-3.90
-13.60
-19.95
-22.20
-19.93
-13.39
-2.91
10.03
22.51
30.29
28.76
14.82
-11.20
-44.78
-78.75
-105.90
-121.62
-125.08
-118.45
-105.12
-87.96
-68.23
-47.34
-26.71
-8.08
6.88
17.54
24.72
30.11
35.33
41.05
46.58
50.40
50.75
46.34
36.21
20.46
0.55
-20.28
-37.06
-44.58
-39.41
-21.81
3.81
30.10
49.36
56.79
51.78
37.39
18.65
0.31
-14.49
-24.39
-29.30
-29.93
-26.94
-20.80
-12.15
-2.78
4.04
4.22
-4.55
-20.41
-36.54
-44.02
-36.64
-15.05
12.51
34.10
40.42
29.74
8.38
-12.72
-24.50
-24.24
-15.29
-3.52
6.65
14.48
21.49
28.94
36.43
41.44
40.72
31.99
15.25
-6.61
-28.24
-43.54
-47.34
-37.55
-16.51
9.75
33.70
48.98
52.75
46.10
32.49
15.79
-0.94
-16.10
-28.77
-37.76
-41.98
-40.84
-34.58
-24.37
-12.07
-0.38
7.24
7.69
0.09
-12.39
-22.51
-22.41
-8.06
17.54
44.71
61.74
61.01
43.13
16.06
-8.63
-22.58
-24.36
-18.35
-10.46
-4.19
0.92
7.20
15.86
25.70
32.84
32.71
22.77
3.60
-20.61
-42.98
-56.38
-55.77
-40.40
-14.59
13.74
36.36
47.71
47.09
38.16
26.24
15.28
6.56
-1.33
-10.05
-19.84
-28.79
-33.62
-31.33
-20.45
-1.73
21.63
43.93
58.43
59.35
44.40
16.55
-16.76
-46.31
-64.78
-69.55
-63.33
-51.54
-39.92
-31.27
-24.89
-18.25
-9.45
1.28
12.08
20.48
25.08
25.99
24.24
20.71
14.86
5.50
-7.70
-22.70
-34.76
-38.15
-28.94
-7.43
21.11
48.26
66.03
69.91
60.91
44.15
25.66
9.63
-2.74
-12.49
-21.04
-29.00
-35.60
-39.30
-39.11
-34.88
-26.85
-15.17
0.29
19.06
38.78
54.90
61.98
55.82
36.12
7.46
-22.20
-44.13
-53.13
-49.37
-37.26
-22.70
-10.19
-1.32
4.66
9.41
13.78
17.63
20.09
20.51
18.99
15.95
11.61
5.46
-3.52
-15.40
-28.13
-37.54
-38.64
-28.03
-6.20
21.95
48.84
67.37
73.44
67.83
54.69
38.98
24.18
11.47
0.57
-8.87
-16.59
-21.83
-23.79
-22.93
-20.29
-16.58
-11.85
-5.63
2.04
9.57
14.07
12.93
4.89
-8.78
-24.92
-40.03
-51.73
-59.55
-64.26
-66.52
-65.69
-60.90
-51.49
-37.92
-22.12
-6.59
6.45
15.88
21.64
24.08
22.87
17.41
7.21
-7.37
-23.24
-35.41
-38.50
-29.11
-7.88
19.85
46.26
64.06
69.02
61.92
46.96
29.18
12.29
-1.98
-13.43
-22.19
-27.76
-29.40
-26.78
-20.43
-11.57
-1.42
9.18
20.11
32.00
45.53
60.44
74.96
85.30
86.94
76.34
54.13
25.11
-3.22
-23.78
-33.01
-32.13
-26.07
-20.46
-19.06
-22.42
-29.07
-37.30
-46.01
-54.05
-58.93
-57.04
-45.85
-26.16
-2.99
16.21
25.69
24.74
18.22
13.55
16.09
25.96
38.38
46.88
47.62
41.25
31.76
23.24
17.19
12.27
6.09
-2.28
-11.41
-18.17
-19.85
-15.47
-6.56
3.37
11.03
14.81
15.28
14.64
15.29
18.46
23.54
28.34
29.74
24.59
10.24
-14.37
-48.07
-86.82
-124.07
-152.31
-165.53
-161.76
-143.05
-115.06
-84.68
-57.49
-36.17
-20.74
-9.86
-2.33
2.24
3.97
3.05
0.64
-1.11
-0.07
4.76
12.77
21.83
29.52
34.22
35.90
36.08
37.15
41.12
48.94
60.34
73.93
87.41
97.65
101.07
94.76
77.87
52.77
24.87
0.75
-14.63
-19.85
-17.10
-10.38
-2.98
4.00
11.37
20.15
30.07
39.40
46.14
49.52
50.61
51.58
54.17
58.85
64.84
70.89
76.05
79.81
81.71
81.15
77.55
70.87
62.00
52.48
43.73
36.24
29.47
22.42
14.68
7.08
1.47
-0.21
2.87
9.76
17.93
24.22
25.94
21.56
11.05
-4.70
-24.50
-47.28
-72.66
-101.00
-133.17
-169.71
-209.66
-249.80
-284.79
-308.58
-316.54
-307.31
-283.28
-249.49
-211.59
-173.91
-138.57
-105.66
-74.18
-43.08
-12.00
18.47
46.83
70.90
88.36
97.43
97.60
90.06
77.48
63.11
50.02
40.46
35.77
36.49
42.46
52.71
65.34
77.72
87.09
91.48
90.30
84.54
76.33
67.95
60.99
55.89
52.12
48.76
45.07
40.84
36.27
31.81
27.93
25.04
23.38
22.93
23.36
24.04
24.35
23.90
22.72
21.15
19.59
18.21
16.95
15.62
14.13
12.58
11.11
9.79
8.54
7.16
5.61
4.10
3.05
2.88
3.73
5.32
7.08
8.38
8.77
8.11
6.49
4.07
0.96
-2.71
-6.71
-10.61
-13.87
-16.03
-16.93
-16.75
-15.89
-14.61
-12.91
-10.54
-7.28
-3.21
1.17
5.20
8.38
10.67
12.45
14.23
16.32
18.66
21.01
23.23
25.47
28.09
31.39
35.32
39.44
43.12
46.02
48.23
50.22
52.57
55.53
58.93
62.19
64.55
65.20
63.39
58.45
49.93
37.68
22.14
4.20
-14.79
-33.41
-50.37
-64.69
-75.75
-83.31
-87.55
-89.22
-89.51
-89.77
-91.03
-93.64
-97.07
-100.20
-101.87
-101.38
-98.85
-95.09
-91.35
-88.93
-88.92
-92.03
-98.21
-106.31
-113.89
-117.56
-113.99
-101.40
-80.65
-55.37
-30.88
-12.30
-2.65
-1.93
-7.50
-15.46
-22.16
-25.26
-23.96
-18.59
-9.97
1.15
14.30
29.14
45.30
62.17
78.93
94.95
110.09
124.85
140.03
156.06
172.45
187.69
199.73
206.87
208.62
205.82
200.21
193.45
186.43
179.03
170.40
159.59
146.04
129.87
111.80
92.85
73.94
55.60
37.82
20.23
2.54
-14.90
-30.97
-44.09
-53.00
-57.55
-58.92
-59.13
-60.04
-62.40
-65.73
-68.77
-70.40
-70.24
-68.71
-66.43
-63.75
-60.66
-57.42
-55.14
-55.88
-61.87
-74.22
-91.94
-112.01
-130.46
-144.04
-151.37
-153.10
-151.10
-147.18
-142.28
-136.45
-129.46
-121.59
-113.97
-108.05
-104.85
-104.15
-104.34
-102.79
-96.62
-83.47
-62.13
-32.99
1.96
39.37
75.18
105.55
127.78
140.81
145.21
142.64
134.99
123.90
110.54
95.89
81.03
67.21
55.46
46.07
38.35
30.76
21.63
9.86
-4.61
-20.78
-37.09
-52.12
-65.16
-76.27
-86.07
-95.25
-104.23
-113.18
-122.26
-131.72
-141.68
-151.58
-159.68
-163.19
-159.04
-145.17
-121.46
-89.96
-54.07
-17.25
18.01
50.42
79.27
103.70
