1480304999.00
64.000000
-0.00
-0.00
-0.00
-0.00
-0.00
-0.00
-0.00
-0.00
-0.00
-0.00
0.00
0.01
0.01
-0.00
-0.03
-0.05
-0.05
0.00
0.13
0.36
0.66
1.01
1.37
1.72
2.06
2.40
2.79
3.24
3.80
4.42
5.06
5.66
6.20
6.68
7.15
7.68
8.31
9.14
10.09
11.04
11.88
12.56
13.14
13.76
14.65
15.96
17.91
20.32
22.90
25.38
27.58
29.57
31.68
34.32
37.81
42.54
48.15
54.10
59.83
64.97
69.58
74.14
79.34
85.71
93.76
103.00
112.62
121.73
129.77
136.75
143.30
150.75
157.77
166.64
177.95
191.79
206.97
220.57
228.25
225.36
208.53
176.87
132.76
80.05
23.07
-34.94
-92.44
-149.16
-205.23
-260.37
-313.74
-363.87
-409.83
-450.91
-486.50
-515.74
-537.23
-549.22
-549.96
-538.37
-514.21
-478.67
-433.88
-382.45
-327.02
-269.84
-212.63
-156.66
-102.95
-52.37
-5.90
35.58
71.43
101.35
125.50
144.38
158.69
169.15
176.37
180.75
182.57
182.07
179.51
175.23
169.65
163.18
156.15
148.81
141.30
133.69
126.02
118.33
110.69
103.16
95.80
88.68
81.83
75.25
68.95
62.95
57.25
51.86
46.78
42.03
37.59
33.45
29.61
26.07
22.81
19.83
17.11
14.67
12.48
10.54
8.83
7.35
6.07
4.97
4.04
3.26
2.62
2.10
1.68
1.32
1.02
0.75
0.51
0.30
0.13
0.01
-0.06
-0.10
-0.14
-0.18
-0.25
-0.32
-0.41
-0.47
-0.51
-0.51
-0.49
-0.49
-0.54
-0.64
-0.78
-0.93
-1.03
-1.05
-0.99
-0.90
-0.87
-0.98
-1.25
-1.67
-2.12
-2.48
-2.64
-2.61
-2.48
-2.44
-2.66
-3.21
-4.02
-4.91
-5.62
-5.97
-5.95
-5.74
-5.65
-5.95
-6.76
-7.98
-9.29
-10.33
-10.90
-10.95
-10.71
-10.48
-10.51
-10.99
-12.07
-13.84
-16.24
-18.75
-20.31
-19.54
-15.37
-7.60
2.73
13.69
23.27
30.17
34.20
36.08
36.77
36.88
36.56
35.74
34.54
33.42
32.99
33.55
34.76
35.85
35.70
33.58
29.30
23.29
16.33
9.31
2.89
-2.46
-6.59
-9.49
-11.21
-11.87
-11.55
-10.46
-8.84
-7.12
-5.70
-4.99
-5.22
-6.34
-8.04
-9.80
-11.14
-11.72
-11.48
-10.57
-9.25
-7.79
-6.43
-5.27
-4.19
-2.87
-0.79
2.56
7.50
13.84
20.86
27.36
32.18
34.66
34.88
33.66
32.19
31.47
31.98
33.63
35.78
37.87
39.69
41.37
43.19
45.30
47.60
49.73
51.29
51.85
51.24
49.60
47.32
44.71
41.81
38.11
32.50
24.93
14.91
2.30
-12.43
-28.26
-43.84
-58.02
-70.19
-80.34
-88.73
-95.76
-101.36
-105.05
-106.04
-103.61
-97.23
-86.68
-72.13
-54.15
-34.08
-13.86
4.17
17.73
25.23
26.41
22.54
16.13
10.21
7.43
9.49
16.67
27.78
40.32
50.95
56.35
54.10
43.57
26.23
5.37
-14.92
-31.00
-40.83
-44.37
-43.19
-39.59
-35.61
-32.44
-30.38
-29.29
-28.95
-29.21
-29.75
-29.92
-28.84
-25.80
-20.80
-14.62
-8.36
-2.72
2.63
8.78
16.77
26.63
36.94
45.50
50.63
52.28
52.24
53.29
57.87
67.04
80.27
96.07
112.72
128.79
143.27
155.46
164.85
171.04
173.65
172.11
165.36
151.84
129.89
98.79
59.39
14.08
-34.14
-82.80
-130.22
-174.65
-212.75
-239.06
-247.30
-233.39
-198.29
-148.88
-95.83
-49.44
-15.81
4.67
15.87
22.77
28.55
33.85
38.03
41.04
44.44
50.59
60.98
74.55
87.27
93.17
86.69
64.82
28.51
-17.11
-63.85
-102.59
-125.64
-129.14
-114.53
-88.70
-62.21
-45.90
-46.87
-65.72
-96.21
-128.00
-150.93
-159.04
-152.31
-135.55
-115.42
-97.20
-83.33
-73.74
-67.30
-63.07
-60.55
-59.06
-57.02
-52.06
-41.94
-25.80
-4.96
17.42
37.31
51.28
57.46
55.61
46.88
33.44
18.28
5.14
-2.01
0.11
12.73
34.16
59.78
83.33
98.87
102.63
93.87
74.50
48.05
18.61
-9.63
-32.24
-44.59
-42.53
-23.91
9.80
52.89
96.36
130.44
147.53
144.24
121.72
84.34
38.00
-11.27
-57.71
-95.97
-121.30
-130.52
-123.17
-102.22
-73.47
-43.89
-19.43
-3.54
3.48
3.81
0.96
-1.47
-0.89
3.63
11.18
19.37
25.42
27.41
25.25
20.77
16.79
15.67
17.99
22.28
25.78
25.79
20.78
10.85
-2.62
-17.57
-31.80
-43.32
-50.63
-53.18
-52.03
-49.99
-50.83
-57.51
-70.05
-84.51
-93.50
-88.84
-64.89
-21.40
35.70
95.95
147.77
182.08
194.75
187.05
164.41
134.36
104.61
81.81
70.76
73.81
90.24
115.90
143.77
165.47
173.49
163.35
134.48
89.60
33.33
-29.04
-91.84
-148.77
-193.10
-219.07
-224.20
-210.87
-185.80
-157.22
-131.02
-108.27
-85.75
-58.99
-26.00
10.75
45.23
70.84
83.52
83.26
73.35
58.38
42.45
28.45
18.04
12.16
11.14
14.67
21.77
31.04
41.00
50.36
58.14
63.43
65.28
62.44
53.58
37.60
14.18
-15.76
-49.71
-83.61
-112.04
-128.98
-129.19
-109.75
-71.69
-20.62
34.25
82.41
115.31
129.08
125.59
111.26
94.41
82.18
78.33
82.76
92.45
102.87
109.51
108.61
97.43
74.29
38.61
-8.64
-64.42
-123.48
-178.99
-223.89
-252.90
-264.27
-260.33
-246.35
-228.29
-210.18
-193.04
-175.38
-155.13
-131.55
-105.89
-80.59
-57.86
-38.68
-22.84
-9.74
0.79
8.60
13.76
17.45
22.05
30.29
43.76
62.01
82.52
101.77
116.54
124.66
125.08
117.41
101.39
76.79
43.73
3.35
-41.51
-85.90
-123.07
-145.61
-147.26
-125.04
-80.82
-21.45
42.62
100.11
141.77
162.48
161.79
143.08
112.11
75.69
40.95
14.63
2.37
7.52
30.14
66.61
110.02
151.87
184.22
201.61
202.06
186.82
159.05
122.24
79.15
31.86
-17.39
-65.41
-107.96
-140.97
-161.79
-170.17
-167.95
-157.93
-142.64
-123.92
-103.26
-82.39
-63.38
-48.02
-37.04
-29.92
-25.44
-22.75
-21.84
-23.02
-25.81
-28.11
-26.61
-18.24
-1.89
20.65
45.15
66.52
80.60
85.41
81.35
70.44
55.09
36.91
16.20
-7.83
-35.78
-66.66
-96.91
-120.88
-132.49
-127.56
-105.56
-69.92
-26.81
16.80
54.93
83.42
100.20
104.90
98.86
85.03
67.88
52.56
43.61
43.71
53.01
69.34
89.04
108.15
123.17
131.63
132.21
124.77
110.21
90.03
65.67
37.95
6.63
-29.30
-70.81
-117.58
-166.81
-212.94
-248.36
-265.58
-260.04
-232.20
-188.07
-137.45
-90.55
-54.77
-32.82
-23.15
-21.92
-25.27
-30.33
-34.92
-36.52
-31.79
-17.43
8.12
43.23
82.94
120.35
148.67
163.08
161.50
144.40
114.21
74.72
30.45
-14.16
-55.72
-92.52
-124.84
-153.89
-180.34
-202.88
-217.78
-219.76
-203.66
-166.64
-109.95
-39.75
33.57
97.71
141.91
160.31
153.97
130.45
101.06
76.91
65.59
69.60
86.99
113.02
142.02
168.56
187.98
196.63
192.31
174.72
145.58
107.94
64.98
19.15
-28.22
-76.42
-124.44
-170.16
-210.00
-239.30
-253.58
-250.12
-229.43
-195.54
-154.86
-113.86
-76.84
-44.95
-17.16
7.84
29.93
47.50
58.97
64.45
66.31
67.97
71.96
78.47
85.83
92.27
97.25
101.68
106.40
110.52
110.97
103.63
85.40
55.43
15.16
-32.89
-86.21
-142.53
-198.86
-250.75
-292.24
-317.21
-321.39
-303.62
-265.91
-212.16
-146.90
-74.65
-0.54
69.21
127.61
168.82
190.67
196.24
193.21
190.86
196.11
210.57
230.27
247.98
256.87
253.26
237.47
212.61
182.38
149.60
115.74
81.44
47.32
14.04
-18.32
-51.36
-88.51
-133.75
-188.97
-251.40
-312.90
-361.71
-386.26
-379.27
-340.25
-275.91
-198.34
-122.03
-60.55
-23.36
-13.30
-25.59
-48.79
-68.06
-69.80
-46.04
3.07
69.62
140.77
202.85
244.74
260.39
249.90
218.90
176.57
132.58
93.62
60.76
29.49
-7.84
-57.39
-119.88
-189.00
-253.33
-300.87
-323.54
-319.64
-293.13
-250.73
-198.86
-142.30
-84.64
-29.64
18.29
54.89
77.91
88.38
90.55
90.45
93.94
105.30
126.93
159.45
201.63
250.33
300.51
345.98
381.00
401.92
408.01
400.88
382.89
355.86
320.43
276.92
226.73
172.96
119.98
71.83
30.69
-3.82
-34.23
-64.10
-97.14
-136.29
-182.83
-235.39
-289.00
-335.12
-363.49
-365.75
-339.54
-291.11
-234.64
-187.70
-164.67
-171.15
-202.03
-244.06
-281.60
-302.31
-300.35
-276.08
-233.39
-176.55
-109.12
-34.86
40.67
109.07
160.94
189.11
192.12
175.29
148.92
124.26
108.85
103.33
101.17
91.62
64.96
17.82
-43.91
-106.16
-151.76
-167.28
-148.64
-102.80
-44.49
9.80
48.29
67.46
72.10
72.19
78.44
98.37
133.96
181.37
232.35
277.05
307.23
318.77
312.36
292.08
263.23
229.91
194.18
156.48
116.78
75.25
31.96
-13.58
-62.05
-112.85
-162.51
-204.40
-230.83
-236.46
-221.19
-190.78
-154.52
-121.32
-96.55
-80.93
-71.74
-65.17
-57.96
-47.99
-34.07
-15.48
8.00
35.54
64.95
92.79
114.90
127.46
128.22
117.40
97.86
74.13
50.27
27.50
3.00
-29.06
-74.08
-133.10
-200.56
-265.09
-313.67
-336.47
-330.08
-297.38
-245.16
-181.18
-112.85
-47.42
7.49
44.72
59.98
54.50
36.02
16.54
8.03
18.19
48.84
97.20
158.43
227.59
299.59
368.04
424.66
460.68
469.70
450.66
408.75
353.45
295.31
242.32
198.09
161.91
130.24
98.45
62.02
17.28
-37.63
-101.52
-169.04
-230.75
-274.93
-291.36
-275.65
-232.23
-173.91
-117.79
-78.90
-64.70
-72.74
-92.45
-109.96
-113.42
-96.70
-60.59
-11.51
40.93
86.49
116.55
125.82
113.09
81.13
35.39
-17.93
-73.81
-129.33
-183.21
-234.53
-281.58
-321.35
-350.15
-364.70
-363.16
-345.56
-313.36
-268.72
-213.74
-150.36
-80.94
-9.15
59.70
119.56
165.67
196.80
216.29
230.93
247.83
270.68
297.61
321.87
335.10
331.34
309.88
275.24
234.72
194.92
159.44
128.37
99.71
71.06
40.60
6.84
-32.10
-78.45
-133.48
-195.48
-258.40
-312.51
-347.15
-354.44
-332.07
-284.03
-219.16
-148.39
-81.96
-27.60
10.51
31.92
39.56
38.94
36.64
38.51
48.03
65.63
88.94
113.98
136.22
151.56
157.05
151.33
134.85
109.48
77.34
39.47
-4.71
-56.62
-116.18
-179.90
-240.25
-287.35
-312.37
-310.77
-283.58
-236.23
-176.14
-110.31
-44.47
16.65
68.71
108.19
133.50
146.35
151.79
156.64
166.96
185.60
211.39
239.79
264.79
280.88
284.33
273.63
249.13
212.30
164.90
108.66
45.73
-20.24
-82.88
-133.57
-164.06
-170.68
-157.62
-136.85
-123.45
-128.45
-152.96
-186.99
-213.93
-218.31
-192.47
-139.20
-69.44
2.64
64.38
107.40
128.23
128.07
112.28
89.39
69.16
59.79
65.20
83.95
110.22
136.54
156.57
166.63
165.73
154.59
134.35
106.15
71.14
30.53
-14.67
-64.14
-118.20
-176.87
-238.49
-298.45
-349.42
-383.05
-392.80
-376.37
-336.57
-279.97
-214.18
-145.25
-76.64
-10.23
52.02
107.00
150.98
181.56
199.45
209.09
217.06
229.17
247.84
270.70
291.52
302.84
299.03
278.20
242.38
195.86
143.00
86.66
28.54
-29.05
-81.74
-123.58
-149.84
-160.26
-160.36
-159.06
-163.63
-174.85
-185.63
-184.49
-161.96
-116.43
-56.00
4.37
48.86
66.82
56.11
22.97
-20.71
-61.34
-87.40
-92.37
-75.98
-43.61
-4.00
33.78
62.90
80.10
85.56
81.71
72.05
60.22
49.51
42.26
39.02
37.45
32.08
15.58
-18.26
-70.99
-137.00
-204.20
-257.57
-284.54
-279.22
-243.77
-186.49
-118.16
-48.69
14.48
66.31
103.80
126.12
135.35
136.81
137.84
145.38
163.19
190.14
220.79
247.51
262.93
262.06
242.99
206.32
154.57
91.97
24.83
-38.22
-87.53
-115.52
-120.71
-109.89
-96.39
-94.46
-112.11
-146.30
-183.75
-206.89
-202.09
-165.77
-105.25
-34.86
29.81
76.51
98.16
92.77
62.85
15.33
-38.67
-85.37
-111.75
-109.32
-77.14
-22.27
42.61
103.03
146.94
167.51
163.95
140.69
105.12
65.21
27.59
-3.76
-28.10
-47.85
-67.43
-91.38
-121.97
-157.37
-191.39
-215.30
-220.87
-203.34
-163.04
-104.96
-37.01
32.21
94.98
145.31
179.54
197.14
200.94
196.70
191.25
189.64
193.01
198.03
198.59
188.25
162.82
121.87
68.69
9.20
-49.57
-100.74
-138.53
-158.87
-160.46
-146.03
-122.82
-101.42
-92.48
-102.22
-129.06
-163.37
-190.74
-197.68
-176.95
-130.14
-66.59
0.38
57.91
97.07
114.17
110.63
91.94
66.24
42.54
28.74
29.77
46.30
74.53
107.04
134.34
147.17
139.10
108.64
60.07
2.54
-52.77
-95.86
-120.69
-126.62
-118.39
-104.80
-96.05
-100.54
-121.57
-155.55
-192.65
-220.15
-227.00
-207.74
-163.95
-102.84
-34.25
32.29
89.18
131.13
155.27
161.83
155.03
142.99
135.56
140.79
161.48
193.65
228.07
253.90
262.42
249.55
215.97
165.63
103.85
36.20
-31.61
-93.29
-141.85
-171.23
-178.97
-168.64
-149.83
-134.86
-133.22
-146.76
-168.10
-183.97
-181.45
-154.05
-104.54
-43.20
16.70
63.97
92.37
101.03
93.11
74.14
50.96
30.61
19.18
20.40
34.71
59.34
89.36
119.13
143.47
158.27
160.58
148.44
121.14
79.80
28.14
-27.15
-77.14
-113.22
-130.73
-131.90
-125.78
-124.70
-138.06
-166.97
-202.73
-230.32
-235.23
-210.04
-157.33
-87.94
-16.02
46.10
91.00
116.63
125.31
122.31
114.83
110.78
117.10
137.61
171.47
213.20
254.47
286.82
304.34
304.84
289.37
260.64
221.29
172.88
116.10
51.97
-17.00
-85.77
-147.04
-192.46
-214.95
-211.49
-185.49
-147.24
-111.53
-92.59
-98.31
-126.51
-165.27
-197.66
-208.68
-191.32
-148.98
-93.35
-39.19
1.41
22.44
24.36
11.90
-8.70
-31.63
-52.06
-65.82
-69.47
-60.93
-40.82
-13.31
14.61
35.38
44.06
40.55
29.62
18.57
13.77
18.02
29.78
44.42
56.38
61.23
56.89
44.09
26.02
7.35
-7.46
-16.27
-20.53
-24.86
-34.50
-51.88
-74.02
-92.61
-97.27
-80.50
-41.68
11.99
67.95
112.87
137.06
136.90
114.84
77.87
35.23
-3.71
-31.21
-42.52
-36.70
-16.58
12.05
42.24
67.72
84.32
90.58
87.63
78.35
66.46
55.65
48.53
45.96
46.87
48.79
48.90
45.14
37.02
25.59
12.74
0.28
-10.69
-19.80
-27.19
-33.02
-37.51
-41.02
-44.15
-47.67
-52.05
-57.15
-62.10
-65.77
-67.34
-66.67
-64.22
-60.38
-54.91
-46.88
-35.29
-19.95
-2.12
15.80
31.29
42.83
50.47
55.55
59.82
64.53
70.03
76.07
82.13
87.77
92.40
95.09
94.50
89.47
79.66
66.17
51.49
38.84
31.17
30.05
34.90
42.86
49.53
50.49
42.94
26.83
4.83
-18.81
-40.06
-56.37
-67.12
-72.85
-74.16
-70.90
-62.18
-47.26
-26.59
-2.51
20.97
39.12
47.76
44.41
28.95
3.66
-27.32
-58.63
-84.52
-99.90
-101.79
-90.62
-70.75
-49.14
-32.43
-24.00
-22.42
-22.61
-19.21
-9.95
3.09
15.07
21.85
22.77
21.18
22.28
29.91
44.36
62.35
79.11
90.81
96.16
96.46
94.34
92.01
89.97
86.77
80.00
67.95
51.04
32.22
15.94
6.34
5.43
12.21
23.03
32.88
36.99
32.06
17.01
-6.78
-35.79
-65.25
-90.39
-107.73
-115.77
-114.85
-106.36
-92.03
-73.62
-53.20
-33.45
-17.27
-6.97
-3.32
-5.17
-9.96
-14.63
-16.73
-14.75
-8.16
2.73
16.71
31.47
43.85
50.76
50.54
44.07
34.74
27.17
25.07
29.35
37.45
44.20
44.03
33.25
11.74
-16.86
-46.37
-70.15
-83.07
-83.04
-71.21
-51.53
-29.47
-10.67
0.45
1.86
-5.36
-16.83
-25.85
-25.57
-11.79
14.64
47.13
75.05
87.46
77.50
45.42
-1.37
-51.08
-92.10
-117.02
-124.46
-118.22
-104.72
-90.21
-79.05
-73.34
-73.28
-77.78
-84.63
-90.87
-93.42
-90.00
-80.07
-65.15
-48.14
-31.94
-18.30
-7.53
0.99
7.95
13.53
17.60
20.31
22.60
25.93
31.40
38.83
46.50
51.82
52.67
48.67
41.49
34.07
29.01
27.14
26.94
25.45
20.00
9.85
-3.15
-15.45
-23.55
-25.82
-23.08
-17.72
-12.06
-7.09
-2.56
1.85
5.45
6.65
4.47
0.34
-1.68
3.28
17.63
38.84
59.60
71.06
67.19
47.86
18.76
-11.63
-36.08
-51.24
-57.62
-57.59
-52.80
-42.97
-26.52
-2.47
27.50
58.14
81.73
90.85
81.40
54.59
17.08
-20.84
-48.58
-58.75
-49.68
-26.35
1.02
20.16
21.14
0.40
-37.05
-79.05
-110.97
-122.14
-110.79
-84.76
-57.19
-39.58
-35.87
-41.22
-45.60
-39.93
-20.78
8.71
41.83
72.42
97.41
116.39
129.23
134.25
128.80
111.39
83.76
50.87
18.75
-7.90
-27.00
-38.63
-43.92
-44.70
-44.49
-49.22
-66.12
-100.37
-150.94
-208.59
-258.23
-285.03
-281.32
-250.11
-203.20
-154.92
-115.24
-86.02
-62.01
-35.25
0.11
45.10
96.22
147.97
195.82
237.60
273.16
302.63
324.87
336.86
334.71
315.52
279.40
230.09
173.97
118.06
67.07
21.40
-22.93
-72.12
-130.87
-198.63
-268.04
-326.77
-361.92
-365.44
-337.73
-287.51
-227.93
-170.77
-121.84
-79.93
-39.58
4.19
52.20
100.21
141.15
168.86
180.40
176.23
158.43
128.63
88.05
38.95
-12.91
-57.73
-84.60
-86.82
-66.40
-34.94
-8.98
-1.83
-16.79
-45.82
-74.50
-90.63
-90.60
-80.02
-68.49
-62.19
-59.40
-51.65
-29.52
10.79
64.30
119.23
163.10
188.84
197.87
198.62
201.12
211.34
227.80
242.25
244.45
227.97
193.66
149.52
106.18
70.64
42.50
14.41
-22.97
-74.60
-137.17
-199.75
-248.45
-272.43
-268.15
-239.89
-197.11
-150.29
-107.42
-72.01
-43.27
-17.25
11.21
46.42
90.57
142.54
197.89
249.63
289.84
311.52
310.20
285.15
239.92
182.56
123.92
74.80
42.32
27.09
22.44
16.83
-1.51
-39.35
-95.12
-159.00
-216.52
-253.70
-262.11
-241.24
-198.08
-144.08
-91.06
-47.56
-17.11
1.69
13.29
22.75
34.17
50.16
72.33
101.74
138.45
180.58
223.31
259.10
279.46
278.16
253.81
210.81
157.72
103.78
55.18
13.28
-24.64
-62.52
-102.45
-143.39
-181.99
-214.75
-239.92
-257.83
-269.68
-275.94
-275.48
-266.08
-245.93
-214.78
-174.08
-125.95
-72.09
-13.50
48.39
110.14
165.45
206.11
224.27
215.33
180.29
126.64
67.07
16.02
-14.83
-20.81
-6.20
17.53
36.06
37.50
16.08
-27.09
-85.75
-151.20
-214.48
-267.53
-303.45
-317.16
-306.29
-272.11
-219.44
-155.21
-86.54
-19.29
42.19
94.81
136.66
167.55
189.76
207.73
226.42
248.26
271.36
289.57
295.06
281.84
248.75
199.52
140.73
78.99
19.27
-34.93
-80.60
-114.79
-135.47
-143.16
-141.75
-137.28
-134.93
-136.14
-137.66
-133.66
-119.37
-94.19
-62.04
-28.99
0.47
25.86
50.50
78.96
113.71
153.22
191.91
222.20
236.96
231.77
205.78
161.76
106.05
47.41
-5.24
-45.48
-71.54
-86.13
-94.14
-99.81
-105.13
-110.51
-116.69
-126.09
-141.70
-164.34
-190.35
-211.78
-219.47
-207.40
-175.38
-128.62
-74.79
-20.61
29.88
74.96
114.24
147.87
176.43
200.92
221.62
237.23
244.50
239.01
217.36
179.05
127.00
66.48
3.40
-56.97
-110.03
-151.41
-177.34
-186.32
-181.12
-169.43
-161.60
-166.03
-184.73
-211.39
-234.05
-240.69
-224.68
-187.13
-134.95
-76.27
-16.33
43.35
103.09
161.56
213.95
253.24
272.95
269.83
244.66
201.34
145.48
83.83
24.57
-23.02
-50.39
-52.70
-31.38
5.59
46.41
79.37
95.91
91.84
66.93
24.14
-30.60
-88.21
-137.26
-165.93
-165.40
-133.36
-74.97
-1.03
75.21
141.42
188.77
212.99
215.61
203.99
187.95
176.55
175.06
182.64
192.84
196.63
185.65
156.68
112.84
59.09
-0.39
-62.83
-126.55
-188.75
-243.89
-285.83
-308.66
-310.11
-297.75
-285.86
-287.67
-308.53
-342.52
-374.98
-391.62
-382.83
-346.26
-290.64
-228.86
-170.11
-116.60
-64.40
3.88
89.85
171.57
239.51
287.49
308.18
299.14
264.17
211.92
152.31
90.66
29.91
-26.36
-75.79
-114.21
-135.17
-134.33
-113.78
-82.90
-55.87
-42.27
-40.89
-43.52
-38.99
-18.67
18.66
66.81
116.23
158.27
189.87
213.46
231.86
246.16
256.04
260.65
259.95
254.92
245.88
232.41
213.26
186.09
149.54
104.46
53.53
-0.19
-54.16
-106.41
-154.20
-193.53
-220.87
-235.51
-240.99
-244.15
-251.53
-265.05
-280.27
-288.15
-280.04
-252.14
-207.17
-152.12
-93.83
-35.80
22.16
81.18
140.20
194.34
236.03
257.82
254.57
225.38
174.15
109.35
42.62
-14.14
-52.31
-68.65
-65.43
-47.98
-21.64
9.69
42.59
71.76
88.97
85.32
56.21
5.86
-51.96
-98.04
-115.42
-96.24
-44.60
25.86
97.84
156.37
192.98
206.78
202.99
189.61
173.78
158.73
142.74
120.63
87.80
43.72
-6.09
-52.14
-86.28
-105.91
-114.96
-120.29
-126.32
-131.39
-129.83
-117.27
-96.05
-75.95
-68.83
-80.61
-105.97
-130.07
-135.51
-112.68
-64.53
-4.31
52.03
93.97
120.09
136.52
150.76
168.99
190.98
211.99
225.69
227.02
214.04
188.17
153.47
113.60
75.35
41.82
13.67
-10.52
-33.07
-55.98
-80.32
-106.51
-138.03
-173.91
-217.64
-272.30
-338.11
-410.39
-479.55
-533.69
-562.59
-565.02
-539.52
-494.66
-441.24
-388.12
-339.08
-292.63
-244.44
-169.64
-99.29
-34.34
16.82
47.40
56.34
49.74
38.78
35.09
46.03
68.86
103.25
143.25
185.21
228.25
271.72
311.93
340.91
349.51
330.43
291.49
246.62
213.64
205.99
226.04
263.66
300.93
320.05
308.40
266.56
200.71
120.73
36.91
-41.65
-106.73
-150.74
-167.38
-154.37
-113.30
-53.66
9.31
58.58
81.39
74.49
45.89
11.51
-12.99
-19.36
-11.71
-3.32
-8.29
-32.57
-69.77
-104.23
-119.54
-107.24
-70.88
-23.38
19.89
47.99
57.97
54.38
45.84
41.42
47.97
68.28
100.58
138.64
173.52
196.10
200.08
183.61
148.92
100.27
42.16
-21.24
-85.12
-143.24
-188.64
-215.85
-223.37
-214.46
-195.08
-170.44
-142.31
-109.32
-69.80
-25.09
19.29
55.55
77.42
83.24
76.26
62.15
45.32
27.12
6.36
-18.05
-44.84
-69.87
-87.49
-92.93
-83.91
-60.97
-27.08
12.79
51.86
82.10
96.64
92.91
75.13
53.62
40.37
42.51
57.62
74.44
79.02
63.12
29.51
-9.06
-36.80
-43.23
-28.29
-1.25
25.19
41.80
46.82
45.22
44.43
49.58
60.71
72.67
78.16
71.28
50.59
20.06
-12.85
-41.15
-62.12
-79.12
-99.61
-130.12
-170.85
-213.75
-245.52
-254.20
-235.82
-196.46
-148.71
-104.58
-69.67
-42.01
-15.90
12.54
42.18
68.45
87.83
101.68
116.23
138.37
170.07
205.79
234.30
243.90
227.72
186.20
125.76
56.15
-12.16
-69.72
-109.29
-127.69
-127.06
-114.64
-99.55
-88.32
-81.71
-75.59
-65.63
-52.52
-43.46
-48.19
-71.77
-109.21
-145.95
-164.61
-154.05
-115.20
-60.02
-4.82
37.90
64.28
78.37
87.65
97.66
109.38
119.43
122.95
116.11
97.72
69.34
34.43
-2.90
-39.62
-74.76
-109.52
-145.92
-184.67
-223.06
-254.42
-270.43
-264.94
-237.59
-194.62
-146.15
-101.09
-63.01
-29.30
5.76
45.96
89.96
131.73
164.63
185.89
198.79
210.69
228.39
253.63
281.22
301.05
302.68
279.68
232.60
169.03
101.37
42.81
2.97
-14.96
-14.57
-3.71
9.25
18.74
22.71
21.20
14.30
1.68
-15.87
-34.10
-45.14
-40.60
-16.59
22.50
64.86
96.76
109.48
103.20
85.87
67.86
56.52
53.83
57.72
65.03
73.93
83.24
90.58
90.93
78.04
48.15
3.43
-47.81
-94.90
-130.00
-151.57
-163.34
-170.24
-174.37
-174.45
-168.54
-157.69
-146.90
-142.07
-145.16
-151.08
-149.55
-130.86
-91.95
-38.51
18.53
69.52
111.07
146.33
180.88
217.27
252.00
276.86
282.85
264.78
223.33
164.73
98.36
34.13
-19.73
-57.77
-77.96
-81.72
-73.62
-60.35
-49.26
-46.96
-57.90
-83.55
-122.13
-168.72
-216.19
-256.55
-282.64
-289.77
-276.58
-244.72
-197.84
-140.53
-77.72
-14.52
44.05
93.90
132.86
161.20
180.89
194.03
200.92
199.41
186.01
157.77
114.12
57.21
-8.81
-78.99
-147.95
-209.74
-257.94
-286.88
-293.84
-280.82
-254.33
-222.70
-192.40
-165.42
-139.37
-110.08
-74.89
-34.19
9.61
54.71
102.04
154.77
215.41
282.17
347.68
400.67
430.35
431.07
404.53
358.07
300.76
239.53
178.05
118.34
63.37
17.75
-14.18
-31.51
-38.12
-40.70
-44.79
-51.75
-59.12
-64.01
-66.31
-68.93
-74.49
-81.08
-81.11
-65.07
-28.00
25.43
81.56
123.94
141.54
133.64
109.37
82.09
62.53
54.92
56.86
62.09
64.19
58.43
42.05
13.99
-24.95
-71.38
-118.72
-158.56
-183.99
-193.09
-190.38
-184.81
-185.28
-196.49
-217.65
-244.20
-271.09
-295.09
-314.49
-327.21
-329.46
-316.78
-286.80
-241.83
-188.66
-135.37
-86.83
-42.28
3.24
54.66
112.26
169.69
215.91
240.04
235.88
204.62
154.50
98.20
49.02
17.53
9.10
22.64
50.81
82.16
104.87
110.86
97.84
68.71
28.94
-16.30
-63.16
-107.68
-143.81
-163.07
-157.40
-123.87
-68.25
-4.62
49.95
82.60
90.50
81.65
70.59
71.21
90.06
123.82
161.47
189.46
197.33
181.46
145.39
97.50
47.57
3.72
-29.62
-52.55
-69.37
-86.95
-111.72
-146.59
-188.65
-229.51
-258.18
-265.59
-248.20
-209.03
-155.81
-97.69
-42.41
4.83
41.14
65.44
78.60
84.04
87.76
97.03
117.65
151.15
193.53
236.30
269.69
285.82
281.00
255.63
212.42
154.70
86.34
12.92
-57.24
-114.32
-150.35
-162.76
-155.47
-136.54
-113.67
-90.93
-68.93
-47.93
-30.87
-23.36
-29.87
-48.97
-71.50
-83.83
-74.97
-42.73
4.92
54.57
94.88
121.78
138.90
153.01
168.91
186.18
200.00
204.44
195.49
172.25
136.72
92.75
45.71
2.05
-32.08
-53.13
-62.44
-66.31
-73.04
-88.93
-114.89
-146.53
-177.16
-201.38
-216.70
-222.58
-218.50
-203.46
-177.65
-144.52
-111.03
-84.77
-69.47
-62.00
-53.10
-32.19
7.06
63.04
126.73
185.65
228.35
247.39
240.13
207.91
155.61
91.06
24.13
-35.44
-80.92
-110.33
-125.65
-130.14
-125.35
-110.70
-86.05
-55.21
-27.45
-14.39
-23.48
-52.05
-86.61
-108.82
-105.11
-74.23
-27.88
15.81
42.17
47.01
37.46
26.79
26.95
43.42
74.17
112.82
152.25
186.95
213.57
229.59
232.54
220.20
191.70
148.53
94.83
36.16
-21.75
-74.41
-119.07
-154.34
-179.68
-194.68
-198.57
-189.93
-167.27
-130.43
-82.39
-30.43
14.88
42.76
46.62
27.41
-5.93
-39.54
-59.94
-59.04
-36.78
0.25
42.20
79.87
107.48
123.32
128.96
128.22
125.89
126.09
130.97
139.44
147.03
146.91
132.36
99.70
50.41
-8.53
-66.58
-112.83
-139.15
-142.01
-122.62
-85.96
-39.47
8.20
48.55
74.77
83.46
75.87
57.64
36.99
21.68
16.13
20.22
30.00
39.92
45.18
43.02
32.82
15.58
-6.80
-31.91
-56.99
-79.31
-96.76
-108.38
-114.57
-116.83
-116.90
-116.07
-114.67
-112.22
-107.93
-101.28
-92.26
-81.22
-68.54
-54.30
-38.50
-21.52
-4.41
11.08
23.16
30.87
34.69
36.47
38.59
42.74
49.02
55.83
60.66
61.20
56.38
46.71
34.03
20.68
8.73
-0.60
-7.09
-11.43
-14.90
-19.09
-25.48
-34.91
-47.21
-60.91
-73.44
-81.83
-83.78
-78.42
-66.66
-50.82
-33.88
-18.64
-7.16
-0.53
1.13
-1.39
-6.48
-12.03
-15.97
-16.94
-14.66
-9.96
-4.28
1.02
5.13
7.87
9.25
9.12
7.08
2.80
-3.50
-10.87
-18.04
-24.17
-29.42
-34.93
-41.97
-50.87
-60.41
-68.18
-71.61
-69.25
-61.50
-50.27
-38.00
-26.66
-17.22
-9.84
-4.27
-0.09
3.46
7.66
14.25
24.88
40.18
59.12
78.96
96.22
107.89
112.57
110.85
104.77
96.90
89.33
83.19
78.63
75.21
72.25
68.97
64.43
57.57
47.47
33.84
17.59
0.90
-13.09
-21.22
-21.38
-13.40
0.75
17.34
32.01
41.10
42.91
38.36
30.77
24.83
25.17
34.67
53.30
77.74
102.12
119.67
124.97
115.75
93.71
63.89
32.70
5.76
-13.72
-25.25
-30.44
-31.55
-30.53
-28.49
-25.96
-23.52
-22.13
-23.09
-27.57
-35.97
-47.54
-60.42
-72.19
-80.56
-84.15
-82.60
-76.20
-65.22
-49.46
-28.68
-3.57
23.19
47.05
63.05
68.39
64.04
54.66
46.33
43.11
44.49
45.55
39.87
23.38
-2.76
-32.36
-57.17
-70.89
-71.77
-62.39
-47.31
-30.32
-13.27
2.88
16.18
22.61
17.18
-3.35
-37.61
-78.80
-116.55
-140.72
-145.24
-130.09
-100.85
-66.15
-34.61
-12.37
-2.03
-2.74
-11.17
-22.63
-32.43
-36.90
-34.03
-23.78
-7.97
10.06
26.15
36.26
37.77
30.65
17.88
4.66
-3.71
-4.09
3.09
14.23
24.56
30.43
30.82
27.07
21.55
16.09
11.45
7.79
5.47
5.41
8.48
14.60
22.26
29.10
33.13
33.85
32.50
31.20
31.64
34.06
37.08
38.57
36.71
30.95
22.15
12.23
3.35
-2.68
-5.06
-4.21
-1.66
0.32
-0.39
-4.84
-12.29
-20.23
-25.18
-24.23
-16.61
-4.57
7.05
12.80
9.17
-3.21
-19.26
-30.98
-30.56
-13.43
19.91
64.01
110.31
149.73
175.44
184.80
180.22
168.28
157.41
154.85
163.66
181.43
201.26
214.68
214.94
199.50
170.49
133.41
94.90
60.55
33.59
14.50
1.51
-8.58
-18.90
-31.36
-46.18
-62.27
-78.70
-96.22
-117.98
-148.28
-189.85
-241.20
-295.28
-341.01
-367.15
-366.28
-337.29
-284.95
-217.46
-143.63
-71.63
-9.37
35.02
54.40
45.83
13.84
-29.28
-67.32
-87.02
-84.27
-65.85
-45.52
-36.65
-46.11
-72.34
-108.29
-146.45
-182.31
-214.43
-241.89
-261.74
-268.79
-257.88
-227.45
-181.21
-127.12
-74.02
-27.62
11.86
49.46
92.39
145.75
209.11
275.45
333.12
370.05
377.95
355.04
305.91
239.31
165.20
92.61
28.92
-19.83
-48.12
-51.56
-27.65
22.50
93.10
173.70
250.42
308.86
337.35
330.71
290.94
226.44
148.72
69.31
-3.02
-63.35
-110.47
-146.75
-176.71
-207.37
-244.92
-292.72
-347.46
-399.64
-436.95
-449.63
-435.26
-398.15
-348.23
-294.37
-242.84
-193.18
-140.88
-81.04
-9.90
64.20
133.87
188.56
219.91
220.42
189.63
133.07
61.19
-13.25
-78.31
-124.05
-145.72
-141.48
-117.09
-78.62
-32.65
15.29
61.83
106.02
149.81
183.03
219.99
255.98
285.20
300.28
294.51
264.05
208.96
133.85
45.99
-43.60
-126.92
-194.54
-239.00
-256.38
-247.48
-217.90
-176.08
-130.91
-87.43
-49.68
-16.33
16.43
52.97
95.60
142.76
188.49
223.51
239.09
227.69
188.06
124.39
44.61
-42.07
-126.79
-201.90
-260.85
-298.01
-310.93
-299.98
-269.21
-225.24
-175.31
-125.25
-78.34
-35.68
3.09
38.63
71.99
104.75
139.19
178.20
224.33
278.35
337.91
396.78
445.69
474.69
476.40
448.92
397.09
331.27
264.16
206.96
166.75
145.90
143.25
155.69
179.20
208.76
237.95
259.31
265.86
253.52
223.00
179.84
132.67
89.86
56.29
31.94
12.48
-8.50
-37.04
-76.75
-127.65
-185.78
-243.58
-291.19
-318.45
-317.78
-286.91
-230.42
-159.13
-87.42
-28.96
6.88
16.87
3.49
-27.72
-71.03
-122.65
-180.67
-243.24
-306.27
-362.53
-403.06
-420.32
-411.67
-380.81
-335.96
-285.98
-236.47
-187.75
-135.84
-76.11
-7.23
66.86
138.11
197.99
241.14
267.15
279.62
283.12
280.36
270.96
252.02
220.20
173.71
113.43
43.30
-30.12
-98.43
-152.42
-183.69
-186.35
-158.70
-103.96
-30.02
52.16
130.61
194.34
235.20
249.24
237.27
204.33
158.00
105.87
53.28
1.92
-49.87
-105.40
-167.03
-234.12
-301.77
-361.59
-404.28
-422.84
-415.21
-385.07
-339.97
-288.06
-235.14
-183.10
-130.51
-74.50
-12.94
53.99
123.22
189.17
244.78
283.12
298.89
289.59
255.89
201.34
132.00
56.08
-16.41
-74.67
-108.97
-113.03
-85.86
-32.14
39.26
117.79
193.45
258.12
305.83
332.82
337.84
322.48
291.04
249.24
202.69
155.18
108.08
60.82
11.89
-39.69
-93.47
-147.14
-196.68
-236.97
-262.87
-270.25
-256.77
-222.36
-169.13
-101.25
-24.80
52.67
122.86
178.01
212.60
224.71
216.18
191.87
157.74
119.01
79.13
39.57
-0.02
-41.23
-86.20
-136.56
-191.85
-248.33
-298.83
-334.40
-347.24
-333.68
-295.65
-239.61
-173.59
-103.92
-33.91
35.08
101.25
160.47
206.56
233.76
239.46
225.49
197.16
160.37
118.81
72.94
21.27
-36.44
-96.61
-151.58
-192.43
-213.54
-215.83
-206.79
-196.77
-193.44
-197.75
-203.35
-200.09
-179.11
-137.15
-78.11
-11.21
52.77
105.50
143.61
168.58
184.43
194.59
199.55
196.48
181.64
153.90
117.21
80.33
53.42
43.24
50.00
67.71
87.61
102.71
110.52
112.96
114.02
117.32
124.72
136.08
149.68
162.73
171.99
174.33
167.81
152.64
131.42
108.17
86.78
69.25
55.25
42.62
28.86
12.37
-7.26
-29.84
-55.38
-84.19
-116.12
-149.84
-182.82
-212.44
-237.76
-260.38
-283.70
-310.59
-340.97
-370.98
-394.32
-405.25
-401.46
-385.05
-361.10
-334.76
-308.72
-282.54
-253.91
-220.85
-183.45
-143.70
-103.95
-65.74
-28.56
9.96
52.77
101.84
157.08
215.92
274.05
326.55
368.51
395.73
405.59
397.32
372.01
332.16
280.51
219.70
152.17
79.53
3.82
-70.93
-138.30
-190.78
-222.11
-230.49
-217.93
-187.87
-145.21
-93.34
-32.50
38.11
116.78
196.49
263.31
303.76
312.68
291.30
247.35
193.18
139.81
92.61
50.47
4.91
-50.48
-113.40
-181.31
-251.62
-319.87
-380.76
-428.80
-459.00
-472.26
-469.34
-446.01
-404.56
-351.26
-290.56
-224.49
-153.58
-52.62
78.03
188.58
263.24
305.95
318.11
305.16
275.73
238.76
200.38
157.58
106.26
49.43
-10.99
-70.96
-120.96
-149.92
-150.13
-120.52
-69.96
-8.80
58.56
126.83
190.46
245.10
286.09
308.25
307.67
281.58
232.69
170.33
102.19
32.57
-36.03
-101.77
-162.01
-212.55
-249.49
-269.17
-268.78
-249.54
-215.71
-171.97
-121.93
-67.17
-7.43
57.72
127.74
199.95
268.10
323.71
358.87
369.04
354.63
320.65
274.44
222.78
169.89
116.88
62.63
5.44
-55.53
-119.25
-182.31
-239.19
-283.16
-307.91
-309.49
-287.69
-245.79
-188.76
-121.49
-48.00
27.67
99.80
160.32
200.20
212.53
195.37
152.50
91.64
21.20
-52.28
-124.61
-192.68
-252.65
-299.35
-327.45
-333.69
-318.48
-285.96
-242.26
-193.05
-141.86
-89.63
-35.23
23.19
86.88
155.18
224.80
289.77
342.54
375.84
385.07
369.52
332.48
279.77
217.35
149.34
77.43
2.01
-75.72
-152.00
-220.18
-272.47
-302.66
-308.37
-291.82
-258.29
-213.32
-160.34
-99.74
-31.02
43.93
118.30
180.71
218.48
222.50
191.01
130.58
53.50
-26.83
-99.87
-159.94
-205.65
-237.77
-257.28
-264.54
-259.75
-243.90
-219.34
-189.20
-156.48
-122.92
-88.48
-51.60
-10.16
37.67
92.88
155.17
222.71
291.69
355.89
407.85
440.38
448.95
433.02
396.09
343.61
280.49
209.64
132.61
52.07
-26.02
-92.36
-136.79
-152.07
-136.56
-94.52
-34.31
34.53
103.00
163.08
207.61
230.31
226.64
195.22
138.78
64.10
-19.28
-100.60
-169.63
-217.84
-239.80
-234.91
-208.48
-171.52
-138.13
-120.82
-125.58
-149.39
-181.39
-207.28
-215.32
-200.23
-163.70
-111.44
-48.97
20.83
97.23
178.85
260.59
333.14
385.59
409.87
404.17
373.87
329.01
279.89
233.19
190.15
147.26
98.92
40.80
-27.75
-102.60
-175.45
-236.21
-275.79
-288.56
-273.46
-233.91
-176.82
-111.25
-46.50
9.69
52.72
81.62
98.31
105.77
105.72
97.43
78.28
46.43
3.34
-45.24
-91.30
-128.54
-155.22
-174.11
-189.58
-203.57
-213.38
-212.82
-195.61
-158.90
-104.79
-38.58
33.81
107.31
177.46
239.38
287.08
315.37
321.58
306.76
276.04
236.47
194.02
151.72
109.67
66.10
19.79
-30.31
-85.74
-146.73
-211.36
-274.62
-328.68
-364.86
-377.16
-363.26
-326.45
-274.91
-216.86
-157.68
-98.60
-37.85
28.30
93.42
149.71
193.86
218.25
217.45
190.12
139.62
73.24
0.27
-70.76
-132.23
-179.41
-211.00
-226.41
-225.56
-208.86
-177.83
-135.64
-86.85
-34.98
18.09
71.94
127.89
186.46
245.19
298.00
337.00
355.51
351.45
327.64
289.75
244.42
196.67
148.77
100.56
50.58
-2.92
-61.30
-124.75
-191.54
-256.86
-313.29
-352.67
-368.76
-359.73
-328.57
-282.23
-228.62
-173.88
-120.38
-66.97
-10.84
49.29
110.15
166.57
210.28
233.22
230.39
201.51
150.72
84.66
10.20
-66.70
-140.84
-207.61
-262.45
-301.53
-322.90
-327.30
-317.70
-297.82
-270.37
-236.33
-195.94
-149.74
-99.33
-47.52
2.59
48.85
90.89
130.53
171.54
218.38
274.36
339.29
407.75
469.60
512.73
527.55
511.03
468.02
409.25
346.60
288.41
236.87
188.69
138.12
80.46
14.52
-56.78
-127.02
-187.70
-229.96
-246.58
-234.55
-197.28
-145.17
-93.41
-57.00
-44.81
-55.75
-79.09
-99.42
-103.88
-87.85
-56.40
-20.78
7.70
22.96
25.80
21.60
15.93
10.92
5.07
-4.42
-18.25
-33.26
-43.40
-42.99
-30.17
-8.40
14.80
31.40
36.52
30.39
17.58
4.28
-4.80
-8.16
-7.24
-4.71
-2.52
-1.10
0.34
2.78
6.64
11.80
18.17
25.99
35.51
46.09
55.43
59.78
55.38
40.36
16.15
-12.45
-38.82
-56.81
-62.85
-56.91
-42.03
-22.83
-3.85
11.70
22.29
27.79
28.77
25.97
20.01
11.46
0.95
-10.66
-22.22
-32.49
-40.29
-44.83
-46.03
-44.57
-41.90
-39.84
-40.00
-43.15
-48.88
-55.70
-61.67
-65.18
-65.67
-63.88
-61.50
-60.51
-62.19
-66.28
-70.52
-70.81
-62.21
-40.76
-5.58
39.61
86.54
124.45
143.90
140.80
118.72
88.18
62.90
54.48
67.93
100.09
141.59
180.91
208.66
219.90
214.16
193.81
162.23
122.75
78.73
33.75
-8.30
-43.77
-69.96
-85.61
-91.00
-87.66
-78.11
-65.53
-53.20
-44.02
-39.63
-39.88
-42.93
-46.02
-46.91
-45.40
-44.05
-47.52
-60.49
-85.24
-120.13
-159.96
-197.97
-228.40
-248.04
-256.35
-254.42
-243.93
-226.87
-206.13
-185.91
-171.05
-165.22
-168.85
-177.97
-185.11
-181.93
-162.25
-124.53
-72.42
-13.79
41.40
83.83
107.18
109.80
95.06
70.33
44.71
26.31
19.79
25.15
38.06
51.87
60.35
60.23
52.20
40.06
28.43
20.33
16.04
13.59
10.58
6.13
1.68
0.28
4.70
15.62
30.90
46.40
57.98
63.36
63.01
59.67
56.71
56.63
59.98
65.58
71.39
75.63
77.40
76.71
73.93
69.32
62.91
54.75
45.47
36.49
29.94
28.10
32.65
43.87
60.38
79.41
97.46
111.36
119.10
120.17
115.36
106.12
94.00
80.17
65.46
50.45
35.76
22.04
9.85
-0.52
-9.20
-16.59
-23.27
-29.80
-36.79
-44.78
-54.16
-64.89
-76.14
-86.26
-93.16
-94.91
-90.35
-79.38
-62.57
-40.82
-15.16
13.05
41.75
68.15
89.31
103.18
109.35
109.11
104.72
98.21
90.64
82.19
72.85
63.08
53.97
46.66
41.77
38.93
37.06
35.01
32.09
28.52
25.31
24.17
27.07
35.70
50.56
70.21
91.12
108.57
118.20
117.45
106.16
85.79
58.42
26.16
-8.40
-41.33
-67.62
-83.22
-87.70
-86.12
-87.37
-99.60
-124.87
-156.92
-184.01
-195.47
-187.77
-166.15
-140.95
-121.32
-110.55
-106.29
-104.89
-106.56
-116.87
-143.52
-190.38
-253.03
-319.04
-372.81
-402.26
-403.26
-379.80
-340.60
-294.35
-246.67
-199.68
-153.31
-107.33
-62.25
-18.57
24.56
69.79
120.47
177.89
238.81
294.93
335.06
348.91
330.97
282.52
210.99
127.64
44.51
-27.79
-81.36
-111.66
-117.58
-101.27
-67.40
-21.68
31.07
88.05
148.24
210.60
271.97
326.36
366.25
385.29
380.83
355.02
313.53
263.12
209.21
154.56
99.49
42.94
-16.07
-77.39
-138.92
-196.66
-245.15
-278.70
-292.92
-285.72
-257.48
-210.10
-146.09
-68.75
16.60
101.46
174.54
224.68
245.28
237.44
210.24
176.94
149.23
132.51
124.50
117.57
102.74
74.34
32.39
-17.15
-64.24
-97.61
-107.88
-90.33
-46.60
15.23
82.83
142.83
184.44
201.93
195.01
167.43
124.80
72.46
14.25
-47.51
-111.21
-174.69
-234.30
-284.64
-319.77
-334.90
-328.06
-300.72
-256.81
-200.75
-135.34
-61.07
22.22
112.50
203.44
284.86
345.92
379.71
386.39
373.16
350.88
329.19
312.90
301.26
289.88
274.31
252.49
225.26
195.01
163.78
131.94
98.15
60.86
19.29
-26.02
-73.08
-119.80
-165.09
-209.28
-253.65
-299.43
-346.89
-395.22
-442.71
-487.14
-525.94
-555.94
-573.47
-575.07
-558.74
-525.25
-478.62
-425.10
-371.28
-321.97
-278.94
-241.19
-206.05
-170.77
-133.16
-91.77
-45.65
5.59
60.46
114.67
160.61
188.39
189.47
160.76
107.59
43.25
-15.06
-52.25
-60.55
-41.18
-1.70
48.92
104.50
162.68
222.60
281.34
332.12
365.71
374.18
354.80
311.28
251.75
184.59
114.99
44.41
-27.35
-98.58
-163.82
-214.80
-243.65
-246.72
-226.17
-188.86
-143.17
-95.62
-48.77
-1.15
50.47
108.24
170.75
232.17
283.61
316.02
323.56
305.80
267.62
216.62
159.40
99.02
35.16
-33.02
-103.44
-169.28
-220.50
-247.91
-247.23
-220.76
-175.55
-119.79
-59.58
1.36
60.10
111.91
149.23
163.35
147.88
102.38
33.58
-46.26
-123.25
-185.69
-226.60
-244.33
-241.52
-223.40
-196.11
-165.08
-133.93
-103.77
-73.36
-39.89
-0.26
47.70
104.14
166.59
230.07
287.79
332.77
359.50
365.34
351.05
320.16
276.89
224.36
163.88
96.28
24.42
-44.96
-101.57
-134.15
-134.51
-100.93
-39.32
38.14
116.26
180.77
221.58
234.24
220.21
185.23
136.90
82.36
26.27
-29.88
-87.46
-148.94
-215.52
-285.05
-351.43
-405.75
-439.06
-445.67
-425.39
-383.68
-329.21
-270.34
-212.25
-156.14
-100.65
-44.27
13.15
70.55
126.85
181.76
235.36
286.42
331.08
363.25
376.59
367.05
334.85
284.08
220.67
149.81
74.80
-1.87
-75.99
-140.09
-184.32
-200.41
-186.66
-150.70
-107.54
-73.41
-58.57
-62.83
-75.93
-83.16
-72.46
-39.92
8.99
62.34
107.06
133.12
135.63
114.41
72.58
15.60
-49.03
-111.96
-163.01
-193.38
-198.16
-177.87
-137.74
-85.21
-26.93
32.61
90.84
144.75
189.57
219.22
228.82
216.75
185.08
138.09
80.41
16.26
-49.39
-109.24
-153.56
-172.52
-159.83
-115.63
-46.68
35.79
119.41
193.16
248.82
281.21
288.46
271.90
235.81
186.35
129.73
70.30
9.27
-54.05
-120.04
-186.62
-248.32
-297.35
-326.32
-330.85
-311.07
-271.57
-218.84
-158.48
-93.04
-22.31
54.46
134.58
210.36
272.80
312.21
322.94
306.02
268.75
221.62
173.80
129.65
87.51
42.07
-11.84
-74.57
-139.55
-194.52
-225.45
-222.11
-182.26
-113.44
-31.06
45.84
100.52
122.81
110.32
67.41
2.84
-72.18
-145.27
-204.33
-240.58
-251.67
-243.54
-228.53
-220.01
-225.95
-244.78
-266.27
-277.03
-267.23
-234.44
-183.17
-121.70
-58.73
-1.82
42.91
71.06
81.64
78.98
72.66
73.96
90.12
120.13
155.17
183.66
197.74
196.73
185.93
171.80
157.38
141.19
120.01
93.26
65.32
44.11
37.25
47.99
73.68
107.23
140.48
167.04
183.37
188.35
182.20
165.63
139.48
104.38
60.40
7.00
-56.53
-129.52
-208.18
-284.61
-348.01
-387.72
-397.15
-376.54
-332.78
-276.63
-218.35
-164.08
-114.78
-67.49
-18.14
36.20
96.35
161.05
227.18
290.05
343.58
381.22
397.62
390.55
361.88
317.05
263.29
207.12
152.47
99.98
47.76
-6.90
-65.27
-125.54
-182.22
-227.31
-252.75
-253.12
-227.24
-178.15
-111.53
-34.37
45.84
120.83
181.73
220.18
230.54
212.27
170.55
114.37
52.83
-8.25
-67.35
-125.62
-183.70
-239.09
-285.74
-316.16
-324.54
-309.35
-273.77
-223.82
-165.43
-102.14
-34.84
35.96
107.51
173.18
223.51
249.57
246.77
216.55
165.38
101.69
32.98
-35.20
-98.23
-150.57
-185.44
-196.36
-179.94
-137.92
-77.31
-8.37
58.25
113.59
151.32
167.54
160.28
129.39
76.95
8.01
-69.05
-143.00
-201.67
-234.69
-236.76
-210.15
-164.38
-113.53
-71.17
-45.34
-35.74
-34.83
-31.62
-16.45
15.64
64.44
125.57
192.65
258.65
316.53
359.58
382.28
381.41
357.09
313.37
256.46
192.78
126.91
60.99
-4.25
-67.55
-125.57
-173.31
-203.96
-212.27
-195.48
-154.20
-92.61
-18.44
57.64
123.41
166.80
181.32
165.35
123.44
64.08
-3.47
-71.75
-135.42
-190.25
-233.53
-260.82
-273.15
-276.63
-280.92
-294.55
-319.81
-350.38
-374.01
-380.38
-361.64
-321.22
-268.74
-214.13
-162.10
-110.69
-54.29
21.46
97.82
168.36
220.66
244.31
235.37
197.81
141.01
75.69
10.24
-52.52
-108.37
-155.44
-190.14
-207.41
-202.74
-174.94
-127.32
-66.70
-2.18
61.27
118.87
167.18
203.13
223.96
228.40
218.51
200.11
180.14
165.52
156.75
148.21
131.60
101.15
57.95
10.75
-27.57
-46.19
-39.80
-11.22
31.26
78.29
122.77
161.39
194.12
222.07
245.43
263.07
272.19
269.43
252.60
221.54
178.17
125.84
68.25
8.78
-49.12
-101.06
-141.39
-163.03
-160.14
-130.23
-75.71
-4.00
74.08
146.75
203.75
237.73
246.61
232.20
199.87
156.91
110.37
65.09
22.67
-18.33
-61.73
-109.96
-164.73
-225.10
-286.99
-343.88
-388.28
-413.75
-416.81
-398.95
-363.39
-316.66
-265.00
-212.48
-160.07
-106.31
-48.94
17.61
82.27
140.78
185.77
210.75
212.47
191.59
151.64
97.19
32.71
-38.02
-107.57
-167.34
-207.33
-218.99
-198.69
-149.38
-79.76
-1.24
74.21
138.31
184.66
209.64
212.70
196.48
166.69
130.88
96.18
66.30
41.38
16.99
-12.65
-51.23
-97.57
-144.97
-183.36
-203.08
-198.72
-170.36
-123.26
-64.54
-0.05
66.85
133.96
197.73
251.70
287.83
299.80
285.95
250.45
201.68
148.16
94.91
42.22
-12.60
-71.34
-131.55
-185.73
-223.75
-236.97
-221.75
-180.50
-119.82
-47.64
29.12
104.46
172.48
226.36
259.15
266.15
247.10
206.61
152.36
92.38
32.88
-22.37
-71.27
-113.43
-149.61
-181.51
-210.72
-237.16
-257.96
-267.90
-261.63
-236.24
-192.98
-136.04
-69.89
2.97
81.87
165.51
249.12
323.54
378.71
407.40
409.37
391.67
365.71
342.00
326.00
316.72
307.74
293.59
270.32
237.96
199.72
159.83
121.11
83.92
46.34
4.17
-42.18
-92.35
-144.59
-197.18
-249.42
-301.28
-351.49
-395.90
-430.55
-446.29
-442.29
-424.81
-405.27
-394.66
-397.49
-409.00
-417.90
-415.92
-392.79
-351.05
-298.67
-243.72
-189.43
-133.49
-71.74
18.02
98.38
162.63
199.02
202.20
176.43
134.17
90.11
54.48
28.81
3.30
-27.04
-68.27
-118.99
-170.37
-209.73
-225.95
-213.25
-172.37
-111.96
-37.66
40.38
111.81
166.37
195.14
192.93
161.03
109.23
52.63
12.07
0.97
21.41
62.37
104.66
129.45
126.98
100.97
65.61
41.02
41.63
71.12
121.43
176.76
220.04
238.99
229.33
194.19
142.53
84.63
29.88
-14.74
-45.18
-60.40
-61.99
-53.56
-39.91
-25.55
-13.26
-3.12
7.43
22.30
44.86
76.16
114.32
154.73
191.20
217.56
228.99
223.36
202.02
169.94
134.60
103.81
83.00
73.37
71.79
72.85
71.85
67.29
61.20
57.37
58.67
65.20
74.39
82.69
87.48
87.99
84.69
78.02
67.58
52.35
31.88
7.54
-17.11
-37.31
-48.88
-50.01
-42.15
-29.45
-17.33
-10.63
-12.35
-23.40
-43.41
-71.72
-107.87
-151.10
-199.05
-247.05
-288.86
-318.77
-334.02
-335.81
-328.07
-314.96
-298.45
-277.69
-250.55
-216.08
-176.29
-136.15
-101.78
-78.21
-68.14
-71.73
-87.23
-111.42
-139.27
-163.99
-178.05
-175.33
-154.09
-118.54
-78.01
-43.76
-24.67
-23.85
-37.66
-57.67
-73.85
-77.92
-65.20
-35.16
8.94
60.63
111.65
153.41
179.05
185.21
172.77
146.42
113.05
80.05
53.87
39.01
37.18
46.77
62.77
77.94
85.08
79.61
61.49
35.33
8.60
-11.24
-19.33
-15.01
-2.07
12.67
21.82
20.30
7.40
-12.94
-34.12
-50.02
-57.86
-59.09
-57.48
-56.01
-54.56
-49.85
-37.85
-16.63
11.93
42.96
70.77
91.50
103.92
108.79
107.04
98.75
83.45
61.82
37.18
15.19
1.34
-2.27
1.49
6.03
5.05
-3.26
-14.55
-20.16
-11.36
16.48
62.19
119.78
180.83
236.83
280.50
306.51
312.21
298.62
270.73
236.54
204.61
181.31
168.85
165.62
167.29
168.45
164.06
149.84
122.46
80.00
22.65
-46.07
-118.51
-183.28
-227.30
-240.16
-218.88
-171.02
-113.93
-69.13
-54.09
-75.13
-125.02
-186.35
-239.24
-268.82
-269.05
-241.90
-193.50
-130.88
-61.14
7.42
64.34
98.44
101.64
73.27
21.44
-39.53
-94.76
-134.34
-155.66
-161.77
-157.27
-145.27
-126.56
-100.96
-69.10
-33.61
0.81
28.54
44.14
44.12
28.68
2.83
-23.92
-39.61
-33.69
-1.06
55.67
126.53
197.45
254.32
286.67
290.04
266.70
225.03
177.76
138.74
118.81
122.43
146.43
181.81
217.34
243.16
253.45
246.34
222.90
185.69
138.11
84.01
27.93
-25.05
-70.20
-104.43
-127.85
-144.46
-161.92
-189.17
-232.64
-292.37
-360.39
-422.26
-462.10
-469.28
-443.55
-395.90
-344.12
-305.10
-287.53
-288.96
-298.31
-302.33
-292.26
-267.25
-233.03
-197.42
-165.00
-135.22
-103.72
-66.10
-21.36
27.39
75.08
117.41
152.34
179.67
199.38
210.64
211.82
201.72
181.08
153.13
123.25
97.89
83.09
83.49
101.56
137.22
187.77
247.86
309.73
364.10
401.78
416.20
405.96
376.18
337.50
302.55
281.01
275.57
281.47
289.54
290.67
279.74
256.59
224.00
185.10
141.50
93.45
41.02
-14.08
-68.06
-115.52
-151.42
-173.56
-184.32
-191.03
-203.53
-229.70
-270.68
-318.77
-359.75
-379.43
-371.32
-340.63
-302.28
-273.26
-263.72
-271.92
-285.93
-290.79
-276.84
-244.11
-200.83
-157.71
-121.35
-91.53
-62.94
-29.90
9.60
52.54
92.38
122.10
136.36
132.40
110.20
72.44
24.59
-25.39
-68.48
-97.04
-106.96
-98.47
-74.97
-40.62
1.80
51.48
108.15
169.88
231.38
284.86
322.85
342.12
345.98
343.56
345.65
359.26
383.94
411.62
430.85
432.66
414.96
383.07
346.13
312.10
284.15
260.28
236.02
207.88
175.29
140.27
105.71
73.10
41.63
8.74
-28.49
-71.85
-121.06
-173.78
-226.53
-276.07
-320.73
-361.14
-399.73
-439.09
-479.92
-519.36
-551.28
-568.40
-565.28
-541.03
-499.81
-448.69
-394.38
-340.85
-289.04
-238.83
-191.20
-148.80
-114.26
-87.84
-66.60
-46.25
-24.26
-2.25
14.65
21.23
16.17
3.95
-6.94
-7.98
5.28
31.97
67.57
107.56
150.25
196.93
249.30
306.14
361.63
406.54
432.29
435.19
418.55
391.43
364.50
345.10
334.49
328.51
320.68
306.12
283.64
255.26
224.19
192.44
159.86
124.61
84.99
41.47
-2.52
-41.77
-72.23
-93.76
-110.87
-130.02
-154.89
-182.36
-202.30
-202.17
-174.47
-122.40
-60.27
-8.10
16.98
7.58
-31.94
-88.93
-148.48
-198.78
-233.35
-250.50
-252.23
-242.76
-227.81
-213.80
-206.06
-206.63
-212.84
-218.18
-215.45
-200.50
-174.32
-142.38
-111.42
-85.74
-65.28
-46.26
-23.92
4.90
41.01
83.98
133.44
189.29
250.28
312.18
367.28
406.23
421.56
410.63
376.93
328.05
272.94
219.10
170.89
129.78
95.34
66.41
41.43
18.64
-3.97
-28.28
-55.97
-88.57
-127.31
-172.36
-221.31
-268.20
-304.15
-321.11
-315.37
-290.12
-254.61
-219.98
-194.42
-180.50
-176.21
-177.87
-185.47
-201.08
-226.61
-260.29
-294.94
-320.06
-326.50
-310.83
-275.13
-228.39
-178.54
-130.42
-85.41
-43.44
-5.16
27.18
50.90
67.22
75.89
80.53
84.24
87.51
88.37
84.41
75.48
64.74
60.50
64.95
80.09
104.36
134.43
167.88
204.95
247.84
280.00
319.20
353.97
373.09
367.57
335.42
283.87
227.35
181.89
158.54
162.04
182.29
206.53
221.93
219.77
196.62
153.43
93.68
22.69
-49.57
-114.52
-159.42
-173.14
-150.81
-97.47
-27.94
37.23
78.88
87.39
61.83
12.74
-44.56
-96.52
-136.30
-164.97
-189.04
-215.64
-247.31
-282.06
-312.28
-328.90
-325.18
-299.22
-254.21
-197.11
-136.72
-81.75
-40.77
-20.00
-21.90
-43.01
-74.00
-102.35
-117.16
-113.60
-94.55
-68.35
-43.93
-26.69
-16.42
-8.72
1.88
19.45
46.01
82.29
128.58
184.27
245.91
305.90
353.15
376.85
371.54
340.80
296.90
256.04
231.62
228.65
242.25
261.10
273.24
271.24
254.17
225.67
190.72
152.88
113.55
72.76
30.74
-11.32
-51.05
-85.93
-114.46
-137.43
-158.55
-183.62
-217.65
-261.36
-309.01
-349.83
-372.83
-372.90
-354.46
-329.93
-313.51
-313.63
-328.56
-347.71
-357.69
-349.33
-321.43
-279.77
-232.51
-185.32
-139.11
-91.48
-40.25
13.97
67.56
115.68
154.49
181.85
197.02
199.65
189.81
168.69
139.68
108.48
81.86
65.76
64.04
78.28
108.53
153.58
210.32
272.68
331.47
376.36
399.47
398.83
379.09
349.22
318.37
292.21
271.60
254.03
236.01
215.29
191.29
164.38
134.51
101.02
63.36
21.99
-21.46
-65.08
-107.46
-147.88
-185.74
-220.01
-249.53
-274.27
-296.03
-317.48
-339.61
-359.41
-370.22
-365.30
-343.07
-310.38
-280.89
-268.73
-280.77
-312.35
-349.13
-374.32
-376.67
-354.84
-315.86
-269.57
-222.89
-177.19
-129.78
-77.81
-21.37
35.97
89.11
133.62
166.76
187.05
193.35
184.70
161.58
127.24
88.12
52.60
28.48
20.82
31.23
58.85
101.67
156.96
220.51
285.34
341.60
378.52
388.05
368.38
325.48
271.61
221.25
186.01
170.95
173.24
184.34
193.85
193.37
178.78
150.27
110.33
61.56
5.50
-56.48
-121.13
-181.38
-226.77
-246.80
-236.15
-198.85
-148.33
-102.33
-74.75
-68.97
-76.83
-84.13
-79.45
-60.99
-37.20
-21.30
-22.91
-42.21
-69.66
-91.12
-95.09
-77.66
-43.57
-2.90
33.35
56.79
62.77
49.98
19.09
-27.15
-83.74
-143.22
-196.55
-235.08
-253.09
-249.78
-229.59
-200.64
-171.45
-147.86
-131.26
-118.81
-105.32
-85.48
-55.50
-13.56
40.06
102.71
168.91
230.51
278.29
304.95
308.29
292.84
268.64
247.23
236.53
237.48
244.28
247.87
240.14
217.28
180.04
131.81
76.33
16.34
-45.38
-104.19
-152.63
-181.73
-184.57
-160.86
-119.23
-75.18
-44.93
-37.99
-53.02
-79.41
-104.13
-119.86
-129.31
-143.01
-171.92
-219.49
-278.10
-332.22
-365.95
-370.64
-348.07
-308.08
-262.42
-218.87
-178.98
-139.11
-94.44
-42.27
16.72
78.77
138.56
190.54
229.70
252.13
255.61
240.18
208.72
166.76
121.66
81.46
53.42
43.12
53.93
86.90
140.51
210.36
288.96
365.98
429.96
470.76
482.57
465.95
428.06
380.31
334.25
297.66
272.26
254.78
239.68
222.29
200.84
176.30
150.80
125.92
101.86
77.54
51.68
23.54
-6.62
-37.93
-69.67
-102.00
-136.18
-173.93
-216.06
-261.26
-305.93
-345.26
-375.40
-395.51
-408.28
-418.82
-431.70
-448.15
-464.97
-475.79
-474.10
-456.28
-422.84
-377.15
-323.29
-264.08
-201.21
-137.09
-76.38
-25.63
9.05
24.53
22.27
6.98
-15.50
-40.20
-63.46
-82.04
-92.32
-90.43
-74.06
-43.80
-3.96
39.37
81.29
120.51
159.76
203.85
256.11
313.90
371.61
419.20
445.84
443.77
411.39
354.21
283.18
210.94
147.67
98.57
62.69
34.91
9.09
-19.66
-53.91
-94.41
-141.06
-193.15
-248.16
-301.09
-344.41
-370.15
-373.59
-356.15
-325.24
-290.70
-259.68
-232.92
-205.68
-172.03
-130.38
-86.38
-50.90
-34.23
-40.14
-63.27
-91.30
-110.80
-112.42
-93.50
-57.17
-9.30
44.04
97.25
144.55
179.67
196.96
194.16
174.32
145.12
115.76
93.05
79.13
72.11
68.88
67.90
70.42
79.23
96.51
122.66
156.67
197.48
244.54
296.96
351.62
401.98
439.05
454.57
444.70
411.88
364.04
311.43
262.79
222.75
191.52
166.19
142.94
118.53
90.54
57.41
18.08
-27.88
-80.21
-137.42
-196.64
-253.04
-299.75
-329.43
-336.98
-322.94
-295.07
-266.11
-247.89
-244.88
-251.35
-254.54
-242.90
-214.01
-177.53
-150.46
-147.46
-172.10
-214.45
-255.97
-278.80
-273.75
-242.56
-194.85
-141.86
-91.75
-48.31
-12.71
14.06
30.62
36.11
31.93
22.00
11.22
3.43
0.03
0.52
3.93
10.32
20.90
37.14
59.70
88.44
123.28
164.97
214.65
271.86
332.47
388.14
428.59
445.50
436.46
406.09
364.15
321.36
285.34
258.48
238.34
220.32
200.27
176.09
147.76
116.00
81.22
43.00
0.38
-47.59
-101.30
-159.79
-220.10
-276.43
-320.77
-345.38
-346.78
-328.83
-302.58
-281.49
-274.77
-282.60
-296.72
-306.14
-304.49
-294.11
-284.22
-284.44
-297.97
-319.05
-336.10
-338.12
-320.27
-285.08
-239.63
-190.60
-141.18
-91.42
-40.77
8.75
52.23
83.96
101.39
107.24
108.75
113.92
127.21
147.38
168.73
185.03
193.39
195.99
198.67
208.08
228.76
262.06
306.23
357.09
408.61
453.40
483.98
494.77
484.06
454.71
412.89
365.42
317.18
270.42
225.64
183.20
144.42
111.03
83.64
60.12
35.72
4.52
-38.08
-93.30
-158.12
-225.36
-285.19
-327.17
-343.11
-330.17
-293.21
-244.66
-201.05
-176.53
-176.73
-196.11
-220.71
-235.31
-231.03
-209.30
-180.28
-157.03
-148.85
-157.49
-177.65
-200.51
-217.75
-224.15
-217.79
-198.82
-168.38
-128.47
-82.39
-35.28
6.76
38.34
56.48
61.38
55.71
43.12
27.00
10.34
-3.98
-12.91
-13.71
-5.04
12.51
37.09
67.40
104.02
148.99
203.28
263.72
321.54
364.32
380.82
366.23
324.78
268.39
211.99
167.90
141.93
132.70
134.22
139.87
145.21
149.11
152.00
153.43
150.40
137.55
109.18
62.00
-2.50
-77.48
-151.54
-211.44
-245.84
-249.30
-225.21
-185.96
-149.58
-133.54
-147.86
-190.54
-248.28
-301.99
-334.80
-338.85
-317.49
-282.55
-248.05
-223.94
-212.53
-209.08
-205.36
-194.08
-172.18
-141.02
-104.55
-66.70
-29.90
4.62
35.59
60.88
78.21
86.58
87.45
84.04
79.31
73.86
65.77
52.84
35.39
17.43
4.77
1.61
7.85
19.60
32.61
46.16
64.25
92.53
133.15
180.95
224.20
249.71
249.47
224.57
184.46
142.06
108.10
87.44
78.94
78.13
80.35
82.76
84.48
85.78
86.83
87.14
85.72
81.65
74.60
65.18
54.79
45.32
38.34
34.33
31.97
28.31
19.81
3.89
-19.68
-48.47
-78.19
-104.17
-122.94
-132.94
-134.48
-129.06
-118.60
-104.85
-89.23
-72.67
-55.52
-37.73
-19.16
-0.11
18.15
33.65
44.56
50.20
51.60
51.10
51.23
53.54
58.18
64.17
70.25
75.61
80.12
83.88
86.85
88.46
87.83
84.09
76.77
65.89
52.00
36.04
19.26
3.02
-11.52
-23.57
-32.81
-39.20
-42.60
-42.75
-39.51
-33.37
-25.93
-19.73
-17.41
-20.57
-29.08
-41.12
-54.16
-66.13
-76.07
-83.98
-90.02
-93.85
-94.50
-91.11
-83.71
-73.82
-64.10
-57.33
-55.19
-57.50
-62.36
-67.13
-69.64
-69.06
-66.04
-62.07
-58.48
-55.60
-52.54
-47.48
-38.71
-25.46
-8.57
9.53
25.52
36.24
39.82
36.41
28.22
18.90
12.43
11.99
19.05
33.08
51.74
71.46
88.22
98.41
99.66
91.48
75.49
55.28
35.58
21.16
15.57
20.05
33.08
50.56
66.90
76.65
76.12
64.62
44.44
20.03
-3.68
-22.67
-34.59
-38.72
-35.50
-25.98
-11.62
5.65
23.37
38.86
49.80
55.20
55.75
53.70
52.05
53.19
57.91
65.01
71.66
74.64
71.51
61.61
46.39
28.89
12.77
1.11
-4.43
-4.04
0.32
5.52
7.94
4.41
-6.79
-25.31
-48.49
-71.88
-90.39
-99.72
-97.60
-84.35
-62.74
-37.03
-11.79
9.28
24.06
32.24
35.13
35.00
34.34
35.00
37.47
40.89
43.50
43.36
38.96
29.43
14.75
-4.17
-25.24
-45.34
-60.96
-69.54
-70.73
-66.86
-61.98
-59.95
-62.40
-68.05
-73.44
-74.89
-70.32
-60.05
-46.24
-31.65
-18.68
-9.02
-3.89
-4.02
-9.42
-18.86
-29.83
-39.05
-43.68
-42.35
-35.60
-25.29
-13.59
-2.10
8.32
17.21
23.95
27.43
26.27
19.14
5.28
-15.12
-40.65
-68.63
-95.25
-116.24
-127.92
-128.35
-118.04
-99.90
-78.10
-56.45
-37.13
-20.31
-4.90
10.16
24.80
37.48
45.96
48.60
45.59
39.31
33.48
31.64
35.77
45.85
60.46
77.77
96.27
114.82
132.13
146.29
154.89
155.71
147.76
131.98
111.27
89.87
72.21
61.78
60.14
66.62
78.49
91.99
103.70
111.64
115.67
116.73
115.41
110.72
99.86
78.87
44.13
-6.08
-70.23
-142.99
-215.05
-274.47
-309.36
-311.79
-281.62
-228.44
-169.71
-125.14
-109.25
-125.62
-165.82
-213.47
-251.38
-267.94
-259.87
-231.04
-188.63
-139.80
-90.19
-44.41
-6.92
17.99
27.67
23.08
9.53
-4.53
-10.26
-1.92
21.09
53.81
87.60
113.26
124.76
121.70
108.87
93.97
84.19
83.82
93.69
112.08
135.61
159.59
178.16
185.12
176.45
153.36
123.94
101.20
97.81
119.70
162.52
213.21
255.88
278.78
278.42
258.41
225.06
182.66
131.86
71.91
5.02
-60.85
-113.18
-139.94
-136.13
-107.63
-69.99
-42.41
-40.13
-68.99
-124.39
-194.39
-264.45
-321.65
-357.27
-368.19
-357.48
-333.89
-309.34
-294.61
-294.59
-305.59
-316.80
-315.48
-293.37
-251.10
-198.12
-148.72
-115.97
-106.86
-120.46
-149.11
-181.62
-206.94
-217.21
-209.25
-184.83
-149.54
-110.64
-74.77
-46.01
-25.31
-10.65
1.83
16.41
36.58
64.51
100.99
145.05
193.55
241.32
282.03
310.50
325.59
331.87
338.13
353.33
381.36
418.17
452.98
473.23
470.51
444.30
401.68
353.36
308.77
272.67
244.76
221.90
200.96
180.66
161.51
144.82
130.62
116.70
99.19
73.78
37.42
-10.52
-67.87
-130.04
-190.57
-241.97
-277.15
-291.60
-285.43
-263.64
-234.14
-204.17
-177.28
-152.85
-128.12
-101.62
-75.44
-54.93
-45.83
-51.10
-69.21
-94.88
-121.32
-142.63
-154.95
-156.51
-147.28
-128.49
-102.87
-74.49
-48.25
-28.67
-18.42
-16.98
-20.84
-24.82
-24.39
-17.42
-4.17
13.88
35.17
57.87
78.89
93.28
95.53
82.84
58.60
33.33
21.59
35.61
79.26
145.68
219.91
284.99
327.96
343.12
331.64
299.27
253.78
203.59
156.97
121.55
103.02
103.42
119.85
144.56
166.81
176.25
166.26
135.74
88.82
32.76
-23.96
-73.27
-108.67
-126.12
-125.61
-112.41
-96.68
-90.35
-101.95
-131.89
-171.86
-208.77
-231.82
-238.59
-236.71
-240.05
-261.57
-306.75
-370.85
-441.31
-502.99
-543.84
-557.98
-545.88
-512.06
-462.25
-401.82
-335.64
-268.67
-206.24
-153.10
-111.93
-81.90
-58.46
-34.83
-4.82
34.26
79.85
124.87
160.45
179.80
181.67
171.30
158.86
155.77
170.73
206.73
260.05
321.37
378.66
421.10
442.31
442.25
426.87
405.67
388.06
379.86
381.49
388.75
395.47
396.60
389.96
375.71
354.93
328.26
295.59
256.97
213.76
168.97
126.89
91.78
66.03
49.17
37.30
24.13
2.96
-30.45
-75.58
-126.72
-174.97
-212.26
-235.58
-249.16
-263.11
-288.48
-331.57
-389.87
-452.37
-503.68
-530.35
-525.60
-490.46
-432.28
-360.93
-286.49
-217.97
-162.89
-126.02
-107.92
-103.92
-105.49
-103.11
-89.90
-64.20
-29.92
5.08
31.65
42.26
33.10
5.67
-33.03
-71.97
-99.19
-105.33
-86.41
-44.58
13.17
77.51
139.12
190.63
228.07
251.58
265.30
275.99
289.88
309.47
331.99
350.57
357.60
348.50
323.17
285.54
241.07
194.05
146.35
98.12
49.76
3.48
-36.56
-66.03
-83.56
-92.72
-101.30
-117.38
-144.56
-179.19
-212.23
-234.90
-244.85
-248.56
-257.92
-282.74
-324.12
-372.80
-413.58
-433.21
-426.61
-397.88
-356.44
-311.23
-266.53
-221.58
-173.74
-121.65
-67.00
-13.53
34.71
74.72
105.02
125.42
136.81
141.02
140.59
137.86
134.29
130.43
126.78
125.30
130.42
148.32
184.15
238.65
305.92
374.05
428.64
457.76
456.39
427.82
382.19
332.55
290.17
260.95
244.46
235.62
227.83
216.20
198.83
176.24
149.72
119.92
86.47
48.49
5.72
-40.49
-86.44
-126.84
-156.39
-172.31
-176.52
-176.08
-180.82
-198.66
-231.14
-271.71
-308.69
-331.22
-335.10
-324.67
-309.53
-298.19
-292.68
-287.68
-274.46
-247.08
-206.61
-160.61
-118.99
-88.98
-72.11
-65.34
-63.91
-64.11
-63.84
-61.47
-54.97
-41.97
-20.88
8.00
41.99
76.75
107.13
128.53
138.11
135.95
125.99
116.04
116.19
135.35
177.16
237.31
304.19
362.48
398.56
404.98
382.49
338.95
286.13
235.96
197.09
172.99
161.87
157.82
153.73
143.37
123.10
92.24
52.53
6.62
-43.08
-94.94
-147.37
-197.02
-238.51
-265.77
-275.35
-269.42
-256.12
-245.72
-244.65
-251.08
-255.47
-246.68
-220.22
-183.28
-152.73
-146.60
-173.90
-228.91
-293.50
-345.78
-370.10
-362.51
-329.47
-281.92
-228.63
-173.19
-115.59
-56.21
1.24
50.08
84.05
100.72
102.85
97.22
91.09
89.06
91.76
96.65
100.15
100.31
98.14
97.56
104.33
124.23
160.95
214.37
279.62
347.48
406.49
446.14
460.15
448.47
417.08
375.73
334.45
300.31
275.45
257.72
242.56
225.84
205.03
179.52
149.45
114.72
74.53
27.75
-25.57
-82.71
-137.21
-179.79
-201.26
-197.14
-171.12
-135.31
-105.70
-94.70
-104.96
-128.21
-150.42
-160.13
-155.56
-145.95
-146.67
-170.90
-222.38
-293.43
-368.17
-429.20
-463.52
-465.85
-438.05
-386.27
-318.14
-241.42
-164.53
-97.08
-48.95
-27.26
-32.67
-57.26
-86.00
-102.05
-93.70
-59.59
-9.18
41.98
79.67
97.25
97.82
91.73
91.22
105.25
136.52
181.62
233.10
282.35
322.24
348.54
360.45
359.78
350.02
335.00
317.85
300.40
282.97
264.89
244.98
221.67
192.95
156.50
110.28
53.50
-12.42
-82.96
-150.54
-205.45
-238.30
-243.44
-222.14
-183.92
-144.11
-117.83
-112.97
-126.16
-144.75
-154.25
-147.21
-128.38
-112.73
-117.25
-151.37
-211.35
-281.89
-343.48
-381.09
-389.35
-372.38
-338.79
-296.27
-248.56
-196.25
-140.01
-83.01
-30.94
9.96
35.56
45.15
41.04
27.01
7.15
-14.39
-32.93
-43.40
-41.25
-24.10
7.50
50.52
101.11
155.94
212.05
265.54
310.51
339.87
348.37
335.90
308.67
277.17
251.67
237.84
235.07
238.19
241.64
242.88
242.96
243.97
245.72
243.77
230.76
199.97
149.13
82.36
9.68
-55.88
-102.29
-122.26
-115.92
-91.54
-63.48
-47.46
-54.46
-85.51
-130.44
-171.88
-193.04
-185.94
-155.51
-117.43
-90.63
-88.48
-113.07
-155.39
-200.78
-235.89
-253.65
-254.11
-241.83
-222.12
-198.59
-172.86
-145.35
-116.12
-85.26
-53.20
-20.97
9.67
36.90
59.94
79.64
97.85
115.70
132.05
143.71
148.00
145.99
143.98
151.29
175.17
215.79
264.61
307.84
332.64
332.84
310.73
274.60
233.98
196.09
164.72
141.23
126.40
120.62
123.22
130.98
137.79
135.78
118.31
82.46
29.98
-33.07
-97.98
-155.19
-196.00
-214.65
-210.73
-190.88
-167.91
-156.39
-166.08
-196.43
-235.21
-263.53
-264.80
-233.13
-176.88
-115.35
-70.47
-57.68
-80.50
-130.28
-190.80
-244.73
-279.20
-288.84
-275.70
-247.04
-211.94
-178.63
-152.27
-134.16
-122.30
-112.68
-101.64
-87.46
-71.01
-54.63
-40.28
-28.16
-16.54
-2.91
14.51
35.62
59.34
85.38
115.53
153.14
200.54
255.71
310.94
354.70
376.25
370.81
342.22
301.71
263.23
237.81
229.57
234.95
245.60
252.41
249.00
232.91
204.35
164.33
113.40
52.10
-16.98
-87.29
-148.01
-186.70
-194.25
-169.76
-122.67
-70.67
-33.78
-26.79
-53.48
-105.28
-165.04
-214.44
-241.56
-245.29
-234.34
-221.87
-218.33
-226.41
-240.31
-249.63
-245.33
-224.76
-192.34
-156.41
-124.23
-98.31
-76.58
-55.48
-33.34
-11.59
7.02
20.71
30.42
39.03
49.59
63.25
78.61
92.38
101.26
103.56
100.28
95.52
95.71
108.06
137.91
185.95
246.75
309.55
361.49
391.86
395.63
374.24
334.35
285.22
236.37
196.02
169.93
160.27
164.90
177.65
189.80
192.44
179.62
149.72
105.33
51.20
-7.81
-67.68
-124.38
-172.77
-206.33
-219.44
-210.97
-186.62
-157.64
-135.70
-126.70
-127.53
-128.23
-118.43
-94.57
-63.07
-37.62
-31.96
-52.47
-94.58
-145.30
-189.78
-218.16
-229.10
-228.89
-226.50
-228.28
-234.87
-241.70
-242.60
-233.62
-215.50
-193.08
-172.82
-159.63
-155.01
-156.94
-161.14
-163.00
-158.87
-146.73
-126.24
-98.22
-63.74
-23.16
24.23
79.44
141.87
207.32
267.47
311.97
332.67
327.96
304.47
274.95
253.14
248.03
260.51
283.86
307.78
323.01
324.49
311.70
286.46
250.56
204.64
149.05
85.82
20.53
-37.86
-79.62
-98.18
-93.82
-74.83
-55.49
-50.62
-69.11
-109.51
-160.29
-205.04
-230.28
-232.15
-218.03
-202.49
-199.72
-216.34
-248.56
-284.69
-311.19
-318.75
-305.25
-274.55
-232.74
-184.78
-133.55
-81.23
-30.95
12.75
45.82
66.40
75.53
75.96
70.23
59.62
44.46
25.68
5.66
-12.10
-24.29
-28.95
-25.42
-13.20
9.25
44.36
93.52
154.40
219.76
278.84
321.15
340.71
338.48
321.70
300.64
284.05
275.89
274.43
273.90
267.85
252.20
226.26
191.81
151.25
105.88
55.36
-1.04
-62.06
-122.67
-174.11
-206.78
-215.05
-201.52
-177.61
-159.15
-158.94
-180.30
-215.49
-250.15
-271.43
-274.61
-264.66
-252.06
-245.95
-248.96
-256.59
-260.65
-253.98
-233.55
-200.44
-158.40
-111.74
-64.83
-21.81
13.31
37.70
51.19
56.77
59.18
62.20
66.27
68.01
62.52
46.83
22.30
-5.19
-27.87
-39.28
-36.41
-19.56
9.37
48.39
95.69
148.49
201.81
248.57
281.53
296.08
292.26
274.86
251.63
230.47
216.80
212.22
214.25
217.70
216.56
205.68
181.95
144.76
95.67
37.41
-26.82
-93.68
-158.90
-216.59
-259.85
-283.06
-285.37
-272.83
-257.19
-250.84
-260.28
-281.92
-302.99
-307.93
-286.78
-240.95
-182.95
-130.28
-97.05
-87.78
-96.56
-111.21
-119.49
-113.79
-92.72
-59.50
-19.19
23.35
64.72
102.78
136.39
165.06
188.56
206.14
215.67
213.78
197.40
166.22
124.66
81.84
48.86
34.96
44.53
76.53
126.19
187.36
253.70
318.54
374.14
412.00
424.83
409.47
368.95
312.12
250.93
196.60
156.30
131.80
120.17
115.61
111.69
103.26
87.16
62.55
30.42
-7.24
-48.48
-92.09
-137.62
-184.33
-229.67
-268.76
-295.75
-306.86
-303.11
-290.67
-277.83
-270.14
-267.22
-262.99
-249.87
-223.92
-187.85
-149.86
-119.33
-102.13
-98.49
-103.96
-112.27
-117.99
-117.54
-109.15
-92.74
-70.10
-44.97
-22.44
-7.24
-1.67
-4.60
-12.12
-19.94
-25.62
-29.43
-33.23
-38.32
-43.96
-47.29
-44.94
-34.83
-17.05
7.03
36.55
72.39
116.59
169.97
229.47
287.12
331.84
353.65
348.11
318.63
275.42
231.42
197.37
178.09
171.56
170.88
168.01
157.01
135.60
104.48
65.69
20.79
-30.04
-86.95
-148.52
-209.66
-261.61
-294.57
-302.42
-287.14
-259.78
-236.41
-230.42
-245.42
-273.16
-298.14
-306.50
-293.85
-267.14
-239.65
-222.52
-218.04
-218.97
-213.68
-193.18
-155.63
-105.81
-51.26
2.26
52.19
97.78
137.43
167.65
184.72
187.46
178.76
164.26
149.06
134.87
119.56
99.56
73.29
43.34
15.78
-2.54
-6.76
4.79
31.31
71.03
121.88
180.96
243.30
301.28
345.84
369.10
367.36
343.09
304.86
265.05
235.64
224.08
230.44
247.45
263.93
269.26
257.23
227.73
185.36
136.18
84.63
32.79
-18.09
-65.26
-103.78
-128.18
-136.15
-131.43
-123.30
-122.37
-134.93
-159.38
-187.25
-208.40
-217.21
-216.02
-213.86
-221.07
-243.37
-278.52
-317.33
-347.69
-359.39
-347.18
-311.66
-258.51
-196.54
-135.29
-83.12
-45.32
-23.24
-14.40
-14.69
-20.38
-29.29
-40.49
-53.08
-65.49
-75.64
-82.21
-85.71
-88.04
-90.79
-93.11
-90.73
-77.00
-46.04
3.95
68.52
137.58
198.47
240.36
257.72
251.82
229.80
201.98
178.59
166.65
168.01
179.39
193.96
203.71
201.51
182.92
146.78
94.69
30.74
-38.99
-106.41
-162.32
-198.41
-210.73
-202.74
-185.68
-174.81
-182.54
-211.85
-254.03
-292.40
-310.39
-299.64
-263.71
-215.58
-170.90
-140.85
-128.20
-128.17
-132.18
-132.24
-123.36
-104.09
-75.13
-38.34
4.17
49.89
95.98
139.47
177.57
207.66
227.07
233.06
223.69
199.18
162.91
121.21
81.81
51.29
33.43
29.19
38.40
61.30
98.67
149.95
210.66
271.45
319.72
343.87
338.09
305.00
255.01
202.51
160.83
137.99
134.98
146.40
163.47
177.24
181.26
172.35
150.16
116.13
72.47
21.56
-34.18
-91.91
-147.78
-197.09
-235.32
-260.18
-273.48
-281.35
-291.70
-310.06
-335.57
-359.99
-370.78
-357.17
-316.17
-255.27
-190.05
-137.64
-109.50
-106.93
-121.34
-138.75
-145.98
-135.54
-107.42
-67.66
-24.80
14.38
47.25
75.49
103.11
133.51
166.61
197.77
219.32
223.79
207.72
174.05
131.59
92.01
65.76
58.89
72.13
102.07
143.34
190.34
237.60
279.62
310.74
326.28
324.40
307.36
281.25
253.77
231.32
216.80
208.99
203.87
196.43
182.67
160.66
130.23
92.56
49.39
2.64
-46.03
-95.50
-145.28
-194.72
-241.89
-282.84
-312.61
-327.70
-328.31
-318.70
-304.95
-291.58
-279.28
-265.64
-248.54
-229.71
-215.77
-215.44
-234.57
-271.90
-318.49
-361.24
-388.40
-393.97
-378.71
-347.92
-307.88
-262.89
-214.56
-163.03
-108.76
-53.54
-0.22
48.16
89.06
120.35
139.85
145.73
137.71
118.60
95.00
75.88
69.70
81.45
111.26
155.50
209.19
267.95
328.37
386.75
437.75
474.63
491.31
485.23
459.02
419.80
376.53
336.59
303.47
276.57
253.04
229.94
205.78
180.25
153.17
123.27
88.22
45.65
-5.58
-63.92
-124.64
-180.33
-222.52
-244.58
-245.06
-229.84
-211.33
-203.94
-217.38
-251.10
-293.17
-325.06
-330.58
-304.27
-254.80
-201.28
-164.28
-156.34
-176.90
-213.74
-249.64
-270.05
-268.04
-245.06
-207.67
-163.69
-119.23
-78.20
-42.83
-14.29
6.72
19.76
24.21
19.07
3.41
-21.84
-52.49
-80.72
-97.38
-95.75
-74.81
-39.50
2.47
45.25
87.60
131.92
180.23
230.16
274.05
302.11
307.65
290.94
259.35
223.94
194.67
176.94
170.76
172.31
176.24
177.38
171.39
155.03
126.76
87.76
42.82
-0.16
-32.25
-46.74
-42.21
-23.74
-1.55
12.63
9.73
-13.47
-53.51
-101.92
-148.43
-184.30
-204.44
-207.92
-197.27
-177.17
-153.18
-130.65
-113.78
-104.72
-103.07
-105.93
-108.61
-105.84
-93.28
-68.76
-33.02
10.31
55.52
96.38
127.79
147.11
154.56
152.59
144.63
133.87
122.52
111.78
102.19
93.80
86.12
77.97
67.68
53.75
35.93
15.89
-2.86
-15.98
-19.91
-13.32
2.14
22.30
41.68
55.16
59.39
53.65
39.76
21.48
3.41
-9.96
-15.22
-10.64
3.35
24.08
46.96
66.48
77.71
77.83
67.07
48.53
26.88
6.53
-9.80
-21.23
-27.90
-29.83
-26.24
-16.08
0.73
22.33
44.96
64.15
76.33
79.95
75.36
64.05
47.76
28.21
7.44
-11.75
-26.21
-33.20
-31.47
-21.57
-5.31
15.05
37.45
59.70
78.82
90.75
91.19
77.48
50.34
14.52
-22.45
-52.61
-70.31
-73.73
-65.06
-49.38
-33.08
-22.26
-21.39
-32.39
-53.96
-81.83
-109.92
-132.28
-144.90
-146.86
-140.03
-127.93
-114.30
-102.01
-92.65
-86.35
-81.88
-77.07
-69.58
-58.06
-42.98
-26.81
-13.04
-4.56
-2.21
-4.46
-8.28
-10.66
-9.95
-6.22
-0.82
4.50
8.29
9.75
8.78
5.90
2.18
-1.14
-3.12
-3.47
-2.65
-1.51
-0.75
-0.75
-1.54
-3.09
-5.38
-8.35
-11.69
-14.81
-17.09
-18.37
-19.07
-20.02
-21.83
-24.38
-26.62
-26.93
-23.83
-16.67
-5.95
6.85
19.82
31.24
40.20
46.72
51.53
55.47
58.95
61.85
63.71
64.44
64.54
64.89
66.13
67.97
69.16
68.12
64.05
57.56
50.60
45.50
43.92
46.18
51.24
57.37
62.73
65.78
65.24
60.14
50.04
35.42
17.97
0.39
-14.40
-24.24
-28.40
-27.66
-23.58
-17.68
-10.84
-3.41
4.29
11.41
16.50
18.20
16.07
11.40
7.11
6.62
12.26
23.86
38.64
52.27
60.89
62.85
59.11
52.65
47.22
46.37
53.13
69.65
96.56
131.77
169.82
202.11
219.00
213.04
182.02
130.49
68.82
10.06
-34.05
-56.59
-57.42
-42.90
-23.50
-10.80
-14.03
-37.86
-81.07
-137.13
-195.96
-246.48
-279.66
-291.61
-285.56
-271.33
-261.79
-267.40
-291.09
-326.39
-359.94
-377.20
-368.29
-331.36
-272.23
-201.61
-131.48
-72.28
-31.06
-10.48
-8.47
-19.06
-34.35
-47.16
-53.44
-52.71
-46.60
-36.71
-23.06
-4.93
17.74
43.32
69.04
92.54
112.88
130.17
144.28
154.22
159.21
160.94
164.65
177.57
205.01
245.97
291.66
328.23
343.03
330.98
297.65
256.78
223.73
208.55
211.98
226.16
239.19
240.89
226.35
197.41
159.96
119.73
80.02
40.93
0.15
-45.20
-96.78
-154.42
-215.01
-273.23
-323.42
-360.10
-378.71
-376.42
-352.71
-309.81
-253.89
-193.84
-140.71
-107.07
-101.93
-126.80
-174.15
-229.35
-275.53
-300.06
-296.72
-266.37
-216.46
-155.40
-89.32
-21.10
47.94
119.54
184.50
229.42
252.15
253.98
241.94
227.98
225.21
242.89
282.47
335.77
389.16
429.72
446.80
437.22
405.20
359.18
307.48
255.19
202.94
148.98
94.63
40.89
-8.94
-50.90
-82.86
-105.95
-124.34
-143.65
-169.35
-200.54
-237.19
-278.05
-321.58
-365.65
-406.75
-439.52
-458.04
-459.47
-439.39
-400.97
-350.42
-294.18
-236.05
-176.36
-113.61
-34.56
37.05
96.72
135.20
145.59
126.19
80.73
16.79
-56.30
-129.02
-194.30
-240.29
-258.98
-245.68
-202.17
-138.48
-71.08
-17.36
11.02
11.40
-4.46
-21.29
-24.62
-6.37
33.69
90.12
155.06
220.22
276.14
315.43
330.24
317.09
280.29
232.35
189.82
166.04
165.12
180.31
199.95
212.25
211.61
199.23
179.72
156.25
127.51
88.95
36.48
-28.56
-98.55
-161.35
-205.27
-223.30
-215.07
-185.81
-143.44
-96.17
-51.51
-16.34
2.82
0.83
-24.14
-68.30
-122.25
-173.06
-208.47
-220.62
-207.69
-173.08
-123.14
-65.00
-5.13
51.34
100.96
141.67
171.96
189.91
192.76
178.16
146.40
102.60
56.91
22.06
9.05
23.25
62.90
120.67
186.99
252.94
311.31
356.12
382.16
385.87
367.16
330.92
286.22
243.18
209.00
185.12
167.39
148.82
123.39
88.80
46.90
1.76
-43.26
-87.61
-133.11
-181.64
-232.51
-281.29
-321.20
-346.02
-352.59
-341.20
-314.52
-275.84
-228.69
-177.92
-131.07
-98.14
-88.76
-107.81
-151.93
-209.45
-264.09
-300.69
-310.42
-292.69
-253.97
-203.92
-151.53
-102.03
-55.81
-10.04
37.86
86.74
130.16
158.38
163.35
143.71
107.29
68.73
43.63
42.41
67.26
113.39
172.76
237.64
301.68
358.82
402.03
423.70
418.55
386.85
335.69
276.85
222.26
179.44
149.30
127.31
106.63
82.09
52.14
18.51
-15.87
-49.46
-83.38
-120.43
-162.56
-209.04
-255.94
-298.05
-331.50
-355.10
-369.72
-376.35
-374.94
-364.64
-346.54
-324.62
-305.01
-292.88
-289.18
-289.35
-285.54
-270.76
-242.10
-202.36
-156.96
-110.46
-64.09
-16.16
36.28
94.92
155.61
214.38
262.91
292.32
296.20
274.18
233.22
186.20
147.70
128.87
134.60
162.55
206.78
261.17
321.08
382.47
439.80
484.99
509.11
506.37
476.83
427.82
371.25
318.92
277.92
248.76
226.39
203.76
175.89
141.78
104.80
70.25
42.49
22.38
6.88
-9.66
-33.04
-66.75
-111.27
-164.22
-221.13
-276.01
-322.20
-353.60
-366.71
-362.72
-348.43
-334.70
-332.42
-347.86
-379.78
-419.92
-456.90
-481.22
-488.86
-481.46
-463.80
-439.92
-410.70
-373.75
-325.61
-264.96
-195.22
-125.47
-68.21
-34.88
-30.57
-51.11
-83.82
-112.34
-123.25
-111.06
-79.26
-36.63
8.46
52.39
96.90
146.10
202.02
262.18
320.41
370.12
407.59
433.00
448.98
457.78
459.11
450.06
426.75
387.18
333.02
269.75
204.97
145.79
96.02
54.82
17.41
-22.41
-69.08
-123.38
-181.98
-238.75
-286.71
-319.66
-333.08
-325.03
-297.37
-256.70
-214.36
-183.47
-173.91
-187.46
-216.20
-245.54
-260.69
-253.16
-223.49
-179.50
-130.83
-83.65
-38.47
8.63
62.68
126.19
195.53
263.48
320.00
354.35
358.84
332.33
281.82
221.27
167.67
135.79
134.04
162.40
213.48
275.78
336.98
386.25
415.52
419.93
398.18
353.17
291.68
223.49
159.23
107.79
73.63
55.59
47.56
40.75
27.23
2.69
-32.14
-72.51
-112.21
-146.69
-174.86
-198.89
-222.58
-249.47
-281.72
-319.92
-363.05
-408.33
-450.84
-483.87
-500.27
-494.87
-466.76
-420.16
-362.94
-303.49
-247.49
-196.12
-146.94
-96.56
-43.79
8.95
56.52
93.96
119.35
134.76
145.24
155.55
166.80
174.60
170.87
147.94
103.36
42.59
-22.11
-76.05
-107.38
-110.78
-88.08
-46.11
6.34
61.06
111.30
151.76
178.58
189.88
187.03
175.30
162.89
158.08
165.75
185.01
209.23
228.74
234.37
221.03
189.15
143.47
90.45
35.58
-18.60
-72.75
-129.10
-189.07
-251.43
-311.73
-363.70
-401.65
-422.64
-427.20
-418.47
-400.14
-374.85
-343.78
-307.49
-267.35
-225.91
-186.21
-150.19
-117.53
-85.76
-51.62
-13.15
29.14
72.26
112.58
147.51
177.24
204.75
234.09
267.03
300.61
326.90
335.55
319.08
277.48
219.95
162.29
121.38
109.34
129.84
177.97
242.60
310.17
367.78
405.23
416.26
399.16
357.44
299.97
239.67
190.05
161.48
157.78
174.92
202.40
226.81
236.33
224.88
193.65
149.15
100.42
55.38
18.04
-12.26
-39.63
-69.82
-106.73
-151.18
-202.29
-257.24
-311.16
-357.40
-388.38
-397.73
-384.27
-352.86
-314.61
-285.44
-278.41
-297.28
-334.43
-374.19
-399.98
-402.38
-380.03
-337.91
-285.35
-229.31
-171.60
-109.99
-41.43
40.00
124.96
193.13
235.13
245.02
222.96
177.68
124.49
80.49
58.62
62.78
90.15
134.30
186.57
240.38
291.75
337.14
371.49
388.14
380.38
346.46
291.21
223.09
152.48
88.34
35.48
-6.14
-40.46
-73.33
-109.08
-149.16
-193.58
-241.28
-291.25
-343.04
-396.05
-448.19
-495.24
-530.61
-547.53
-542.12
-514.76
-469.88
-414.15
-354.03
-294.13
-237.17
-184.83
-138.85
-101.39
-73.71
-54.79
-40.88
-26.54
-6.94
20.10
53.39
89.42
124.59
157.41
189.36
223.93
264.58
312.18
363.20
409.64
440.87
447.41
425.16
378.22
318.81
263.84
229.41
225.42
252.60
302.99
363.32
419.65
461.06
481.51
479.66
457.46
418.56
367.35
308.40
246.42
186.28
132.43
88.03
53.77
27.10
2.82
-24.77
-59.44
-101.23
-146.56
-190.66
-230.33
-265.40
-297.75
-329.26
-359.84
-387.39
-409.12
-423.05
-428.17
-423.35
-406.39
-374.76
-328.40
-272.64
-218.76
-180.42
-167.22
-179.28
-205.93
-230.17
-236.22
-216.29
-173.00
-116.50
-58.93
-9.01
30.32
61.21
87.94
113.47
137.32
154.93
159.52
145.03
110.13
60.49
8.24
-31.69
-46.82
-31.64
10.84
70.97
136.42
196.24
242.80
272.13
282.98
276.38
256.05
228.50
202.03
184.17
178.83
184.73
195.91
204.17
202.06
185.22
153.13
108.56
55.88
-0.48
-57.51
-114.09
-169.93
-224.08
-273.69
-313.98
-340.20
-350.14
-345.19
-329.33
-306.41
-277.73
-242.28
-199.59
-153.38
-112.92
-89.93
-92.54
-119.69
-159.95
-195.89
-211.73
-199.76
-162.17
-108.05
-48.37
8.53
58.29
99.74
133.16
158.67
175.42
181.47
174.28
152.12
115.78
70.11
24.05
-11.43
-26.97
-18.03
13.72
61.53
116.44
170.33
217.55
255.05
281.60
297.14
302.49
299.33
290.07
277.39
263.73
250.80
239.20
228.06
214.92
196.37
169.28
132.24
86.54
35.65
-16.50
-67.52
-117.10
-165.65
-212.25
-253.53
-284.95
-303.56
-310.21
-309.31
-305.90
-302.23
-296.16
-283.04
-259.83
-228.44
-195.62
-169.24
-153.21
-144.64
-135.25
-116.40
-84.37
-42.64
0.15
34.89
56.73
66.86
71.35
77.59
90.31
108.98
128.11
139.64
136.89
117.92
86.87
52.73
26.29
16.41
27.34
57.79
102.03
152.23
200.83
242.08
272.20
288.72
290.11
275.79
246.93
207.14
162.50
120.48
87.93
68.79
62.63
64.67
67.81
65.18
52.56
29.31
-2.73
-41.14
-84.62
-132.95
-185.30
-238.19
-285.03
-318.47
-334.09
-333.10
-321.69
-307.67
-296.27
-288.07
-280.34
-270.54
-259.05
-249.02
-243.46
-241.84
-239.26
-228.98
-206.58
-173.03
-134.30
-97.71
-67.89
-43.99
-20.44
10.13
53.13
109.07
172.04
230.71
271.72
284.44
265.68
221.97
168.08
122.09
99.07
106.56
143.14
200.53
267.07
331.17
383.16
415.98
425.58
411.62
378.01
332.62
285.37
245.18
217.26
201.90
195.10
190.59
181.94
164.39
135.85
97.25
51.96
4.46
-41.54
-84.81
-126.39
-167.95
-209.26
-247.03
-276.10
-292.47
-295.83
-289.66
-278.50
-264.40
-245.55
-218.54
-182.92
-144.57
-114.89
-105.11
-119.22
-150.30
-183.05
-201.41
-196.76
-171.66
-137.16
-105.70
-84.42
-72.49
-63.47
-50.47
-31.09
-9.41
6.13
6.96
-10.93
-44.48
-84.08
-117.06
-132.20
-123.62
-92.21
-43.93
13.54
74.18
134.87
194.24
250.17
298.24
332.45
348.02
344.42
326.30
301.62
278.06
259.80
246.32
233.48
216.15
190.61
155.79
113.15
65.61
16.16
-33.20
-82.21
-132.06
-183.72
-236.09
-285.25
-325.66
-352.83
-365.91
-368.02
-363.99
-356.62
-344.54
-323.65
-291.41
-250.97
-211.79
-185.51
-179.21
-190.65
-208.40
-217.32
-205.93
-171.44
-120.12
-63.22
-11.51
28.99
57.90
79.34
98.88
120.48
144.44
166.65
180.02
177.61
156.42
119.84
77.50
41.87
23.71
28.54
55.47
98.91
151.27
205.28
254.78
294.70
320.89
330.77
324.38
305.21
279.94
256.60
242.28
240.82
251.57
269.35
285.83
292.27
282.18
253.35
208.58
154.24
97.43
43.19
-6.59
-52.09
-93.52
-129.86
-159.37
-181.58
-198.72
-215.05
-234.21
-256.11
-275.87
-285.99
-281.03
-261.87
-236.52
-216.69
-211.65
-223.19
-244.61
-264.33
-271.93
-262.98
-240.20
-210.68
-181.26
-154.48
-127.51
-94.48
-50.60
3.73
61.13
109.04
134.59
130.08
97.23
47.53
-1.72
-33.45
-36.79
-10.04
40.16
102.59
165.86
221.52
264.66
292.83
304.89
300.57
281.28
251.03
216.34
184.68
162.20
151.45
150.43
153.17
151.86
139.59
112.43
70.61
17.64
-41.49
-102.57
-163.29
-222.70
-279.49
-330.31
-369.84
-392.98
-397.77
-387.15
-367.83
-346.77
-327.26
-307.27
-281.54
-246.35
-203.74
-162.11
-132.40
-121.94
-129.90
-147.07
-160.46
-159.52
-140.74
-107.88
-68.49
-28.78
9.69
49.84
96.29
151.10
210.84
266.35
305.40
317.33
297.50
250.26
188.41
129.36
89.49
79.04
99.52
144.46
202.75
262.62
314.75
353.60
377.27
386.56
383.95
372.69
355.80
335.29
311.96
286.00
257.91
229.11
201.35
175.45
150.29
122.79
89.54
48.67
1.07
-50.41
-102.67
-153.71
-202.59
-247.60
-284.82
-308.55
-314.42
-302.85
-280.39
-257.17
-241.55
-235.49
-233.66
-227.26
-210.18
-183.52
-155.30
-135.81
-131.56
-141.85
-159.82
-176.59
-185.76
-185.15
-175.83
-159.68
-137.57
-109.71
-76.87
-41.62
-8.48
17.18
30.80
29.94
15.36
-8.62
-34.77
-54.58
-60.99
-51.33
-28.75
-1.04
23.04
38.38
46.17
53.00
66.68
91.20
123.90
156.59
179.76
187.32
179.34
161.45
141.83
127.62
122.27
124.64
130.19
133.12
128.83
115.93
96.38
74.43
54.34
38.12
24.84
11.74
-3.29
-19.58
-33.33
-39.68
-35.80
-23.08
-6.78
6.60
12.71
11.44
6.58
3.37
5.63
13.96
25.87
37.40
45.11
47.43
44.91
39.46
33.36
28.23
24.44
20.78
14.95
4.58
-11.43
-31.99
-53.97
-73.55
-87.91
-96.47
-100.68
-102.66
-103.62
-103.24
-100.30
-94.08
-85.37
-76.20
-68.65
-63.56
-60.14
-56.73
-52.15
-46.68
-41.86
-39.43
-40.05
-42.68
-45.05
-44.78
-40.43
-32.03
-20.81
-8.65
2.59
11.55
17.49
20.32
20.57
19.37
18.26
18.94
22.85
30.79
42.34
55.74
68.03
75.93
77.05
70.93
59.48
46.34
35.43
29.49
29.25
33.72
41.37
51.19
63.16
77.60
94.22
111.20
125.48
133.66
133.50
124.68
108.89
89.08
68.47
49.74
34.64
23.91
17.37
14.06
12.45
10.82
7.72
2.42
-4.75
-12.40
-18.44
-20.87
-18.58
-12.01
-3.30
4.13
6.37
0.11
-16.48
-43.19
-77.34
-113.79
-145.45
-164.59
-164.85
-143.48
-102.73
-49.85
4.87
51.09
81.26
92.19
85.02
63.95
34.80
3.92
-22.45
-38.85
-41.49
-29.35
-5.03
25.65
55.14
76.42
85.12
80.51
65.15
43.51
20.13
-1.92
-21.55
-39.35
-56.44
-73.26
-88.74
-100.43
-105.61
-102.69
-92.30
-77.22
-61.32
-47.95
-38.72
-33.42
-30.83
-29.85
-30.30
-32.78
-37.88
-45.35
-53.91
-61.70
-67.06
-69.10
-67.93
-64.32
-59.38
-54.02
-48.80
-43.87
-39.09
-34.36
-29.83
-25.88
-22.72
-19.96
-16.50
-11.01
-2.69
7.96
19.21
28.87
35.55
39.49
42.49
46.82
53.92
63.68
74.68
85.30
94.60
102.90
111.23
120.58
131.29
142.87
154.40
164.94
173.82
180.53
184.68
185.90
184.09
179.62
173.39
166.57
160.31
155.44
152.25
150.57
149.80
148.94
146.65
141.48
132.29
118.73
101.39
81.67
61.12
40.87
21.41
2.87
-14.49
-30.00
-42.76
-52.26
-58.96
-64.28
-69.77
-75.89
-81.14
-82.29
-75.84
-60.05
-36.63
-10.96
9.09
15.29
1.80
-32.65
-83.48
-140.60
-190.35
-218.95
-216.85
-182.18
-121.95
-50.00
17.56
67.64
93.68
96.03
79.67
50.75
14.00
-27.67
-72.49
-118.93
-165.67
-212.29
-259.36
-307.16
-353.93
-394.63
-421.97
-429.34
-414.21
-379.67
-333.24
-283.57
-237.07
-196.16
-159.80
-125.36
-90.13
-51.82
-8.33
41.99
99.16
159.98
217.61
262.83
286.97
285.00
257.84
212.73
161.17
115.41
84.46
70.88
69.98
71.26
62.45
34.49
-14.35
-77.39
-141.72
-192.85
-219.89
-218.51
-190.70
-142.23
-79.61
-8.74
64.45
132.51
186.12
215.95
216.13
187.49
138.41
82.11
31.81
-4.40
-26.23
-40.29
-56.42
-82.46
-120.61
-166.17
-209.88
-241.63
-254.49
-246.75
-221.49
-183.92
-137.97
-84.92
-24.47
42.25
109.63
167.17
202.23
205.21
174.36
117.99
52.07
-5.19
-39.60
-45.23
-24.45
15.52
67.35
126.59
191.33
259.24
324.60
377.72
407.85
407.88
378.03
326.44
265.51
206.38
154.31
107.85
61.58
11.01
-43.61
-96.53
-139.01
-163.09
-165.24
-147.72
-117.75
-85.28
-60.43
-51.65
-64.40
-99.80
-153.68
-216.64
-275.83
-318.23
-334.68
-322.31
-285.25
-232.35
-173.39
-115.81
-63.05
-15.21
29.66
74.21
121.60
174.17
232.32
293.36
351.03
396.64
421.60
420.96
395.42
351.82
299.66
247.58
200.93
161.65
129.64
104.18
85.16
70.09
59.34
53.81
52.97
53.49
50.30
40.36
22.99
1.33
-20.71
-39.61
-54.62
-68.32
-85.57
-110.59
-145.21
-189.36
-240.77
-295.56
-347.98
-391.18
-417.91
-422.91
-404.54
-367.21
-322.40
-283.74
-260.93
-254.73
-257.19
-256.12
-242.07
-211.71
-168.41
-120.45
-74.59
-32.40
9.92
58.17
119.68
190.04
256.69
312.36
349.49
362.95
352.40
322.49
281.01
236.03
192.47
152.10
113.39
71.66
23.03
-32.73
-91.09
-143.58
-180.97
-196.84
-188.68
-158.52
-112.75
-59.13
-5.07
42.29
76.19
91.05
84.24
58.46
21.60
-16.39
-47.05
-66.86
-78.60
-89.49
-107.00
-134.81
-170.58
-206.80
-234.36
-245.84
-238.10
-213.00
-175.91
-133.26
-89.87
-47.61
-6.00
36.11
79.00
122.18
165.42
209.58
255.86
303.88
350.19
388.09
409.80
409.41
385.35
340.37
279.91
209.98
136.37
65.48
5.47
-33.91
-44.28
-22.64
25.29
85.37
139.35
171.37
173.23
146.04
98.18
40.26
-19.30
-76.69
-132.12
-187.44
-243.44
-298.23
-347.38
-385.21
-406.69
-409.17
-393.06
-361.47
-318.83
-269.52
-216.48
-161.28
-104.85
-48.11
7.78
62.20
115.74
170.32
227.98
289.33
351.77
409.29
453.83
478.09
478.25
455.45
415.28
365.55
313.79
265.03
221.21
181.76
144.50
106.76
65.85
19.80
-31.27
-83.91
-131.78
-167.82
-187.08
-189.48
-179.58
-164.36
-150.39
-141.92
-140.99
-148.49
-165.10
-191.27
-226.42
-268.06
-311.92
-352.80
-385.71
-406.65
-412.90
-403.14
-377.98
-340.62
-296.19
-250.25
-206.55
-165.59
-125.03
-81.35
-31.21
27.53
95.92
173.86
259.16
346.69
428.51
495.54
540.25
559.41
555.02
533.04
500.80
464.39
427.43
391.51
357.26
325.30
296.22
269.81
244.69
218.63
189.51
156.46
120.10
81.84
43.04
3.95
-36.50
-80.18
-129.11
-184.87
-248.40
-319.67
-397.04
-476.53
-551.66
-614.42
-657.23
-675.41
-668.85
-642.00
-602.26
-557.42
-513.48
-473.47
-437.41
-403.25
-368.00
-328.94
-284.21
-233.22
-176.21
-113.62
-46.14
24.47
93.91
155.06
199.51
221.68
222.54
210.85
200.00
201.63
219.68
248.93
278.51
298.47
304.79
299.92
288.28
270.96
243.57
199.25
135.07
57.55
-17.16
-69.18
-84.03
-60.29
-11.59
38.30
65.19
54.25
5.62
-66.35
-139.92
-194.97
-220.37
-216.22
-191.15
-156.10
-119.11
-82.79
-45.53
-4.73
40.29
88.03
136.77
186.73
240.39
300.77
367.98
437.14
499.04
543.49
563.53
558.42
533.56
497.72
459.33
423.60
391.86
362.40
332.65
300.41
264.58
224.89
181.36
133.82
81.94
25.94
-32.46
-89.22
-138.95
-176.58
-200.00
-211.62
-217.93
-227.25
-246.94
-281.27
-330.82
-392.90
-462.10
-530.80
-589.89
-630.21
-645.03
-632.53
-596.56
-545.36
-488.17
-431.66
-377.99
-325.52
-270.49
-209.29
-139.94
-62.89
18.81
99.49
171.64
227.48
260.88
268.88
252.06
214.34
162.05
102.90
44.88
-4.78
-40.84
-60.77
-64.62
-54.28
-31.97
0.23
39.28
80.02
115.00
136.66
141.28
131.16
113.43
95.69
80.88
65.03
39.57
-2.93
-63.31
-133.87
-201.16
-251.93
-278.60
-281.44
-266.71
-242.50
-214.65
-185.21
-153.10
-116.33
-74.12
-27.85
19.65
65.73
109.22
150.51
190.77
231.13
271.98
312.97
352.84
388.79
416.22
428.98
421.10
389.59
337.06
272.09
206.92
153.42
119.17
105.96
110.51
126.77
148.15
168.61
182.73
185.81
174.56
147.59
105.97
52.67
-8.66
-75.26
-145.67
-218.82
-292.35
-361.32
-418.57
-456.74
-471.00
-460.85
-430.24
-385.90
-334.54
-280.90
-227.13
-173.52
-119.64
-65.13
-9.72
46.85
104.64
162.42
216.96
262.90
294.12
306.06
297.16
269.12
225.42
169.73
105.57
37.51
-27.39
-79.88
-111.33
-117.76
-101.78
-71.74
-37.48
-5.85
20.82
43.01
60.22
68.67
62.53
37.62
-5.01
-58.51
-113.13
-160.87
-198.46
-227.22
-250.10
-268.67
-281.64
-285.99
-279.35
-261.55
-234.82
-202.53
-167.46
-130.67
-91.67
-49.35
-2.64
48.86
104.50
161.81
216.54
263.31
297.74
319.20
332.32
345.64
367.42
400.53
439.71
473.13
487.86
476.22
439.26
385.55
326.10
268.81
215.50
163.21
108.45
51.17
-4.22
-51.56
-86.57
-109.26
-123.07
-131.42
-134.95
-131.24
-117.44
-94.44
-68.73
-51.03
-51.97
-77.62
-127.08
-193.26
-265.73
-333.67
-387.80
-421.04
-429.23
-411.72
-372.09
-317.23
-254.78
-190.57
-126.92
-63.12
2.07
67.98
131.11
186.49
230.56
263.13
287.35
307.42
325.64
340.57
347.36
340.23
315.27
272.45
215.96
153.14
92.66
42.73
9.80
-2.51
5.94
31.39
66.69
102.79
130.67
143.74
138.94
117.05
81.99
39.00
-7.01
-52.93
-98.27
-144.83
-195.42
-251.64
-311.94
-371.03
-420.88
-453.35
-462.90
-449.14
-416.49
-372.40
-324.07
-275.81
-228.16
-178.82
-125.03
-65.64
-2.10
61.89
121.47
171.67
208.48
229.44
234.08
224.00
201.92
170.47
131.00
83.32
27.05
-36.12
-100.74
-157.65
-196.58
-209.50
-193.66
-152.23
-93.03
-26.22
37.88
89.59
121.31
128.40
110.40
71.55
20.16
-33.39
-79.70
-113.25
-134.10
-147.14
-159.50
-177.30
-202.49
-231.67
-257.42
-271.32
-267.44
-244.73
-207.01
-160.73
-111.93
-64.35
-19.08
24.15
65.49
105.10
143.88
184.46
230.87
286.52
351.45
420.47
483.42
528.33
545.84
532.97
493.93
438.44
377.26
318.21
264.32
214.23
164.48
112.03
55.69
-3.95
-65.59
-128.22
-191.22
-253.53
-312.67
-364.25
-402.51
-422.26
-420.88
-399.24
-361.25
-312.36
-257.84
-202.21
-149.38
-103.34
-67.86
-45.48
-35.77
-34.55
-34.85
-29.09
-11.50
21.12
69.42
131.80
204.41
280.57
350.61
403.45
429.75
425.34
393.51
343.77
288.13
236.99
195.61
163.16
134.46
102.99
63.40
12.94
-48.36
-117.90
-190.27
-257.66
-310.97
-341.76
-344.75
-320.59
-276.66
-225.71
-181.84
-154.45
-144.87
-147.01
-151.51
-151.36
-145.70
-138.85
-137.59
-146.95
-165.05
-184.17
-195.40
-193.00
-176.54
-149.69
-115.44
-75.89
-33.11
13.81
66.91
126.34
190.00
253.57
310.91
357.56
388.93
400.12
394.68
383.18
376.91
382.84
399.97
419.66
433.20
432.31
409.76
368.62
318.01
265.27
212.71
158.17
79.16
-25.75
-118.17
-182.49
-217.41
-223.34
-208.63
-187.18
-172.20
-170.42
-176.66
-182.64
-186.94
-191.54
-203.12
-231.11
-280.23
-345.36
-412.23
-460.96
-478.10
-464.31
-426.88
-376.13
-321.44
-267.54
-214.39
-159.54
-99.63
-34.98
28.55
85.43
132.03
166.68
190.50
207.30
222.60
242.33
269.02
299.13
325.36
338.57
330.75
298.34
243.93
175.68
105.07
43.23
-1.99
-26.70
-30.88
-17.36
9.95
47.50
92.88
143.73
196.37
244.97
281.86
299.76
294.73
267.60
223.55
169.60
111.46
51.58
-10.30
-74.87
-140.29
-201.04
-249.69
-280.76
-294.72
-299.40
-307.05
-328.35
-366.36
-414.05
-456.95
-479.93
-474.14
-440.34
-387.30
-326.39
-266.03
-209.02
-153.61
-96.76
-37.22
23.53
82.52
137.36
187.96
236.14
284.08
332.53
379.94
422.61
456.11
476.87
483.25
476.00
457.77
432.34
403.56
374.54
347.09
321.62
297.52
273.98
250.59
227.66
205.82
185.18
164.76
142.50
115.98
83.48
44.43
-0.95
-52.30
-109.21
-170.30
-232.00
-288.66
-334.53
-366.83
-387.55
-402.37
-417.28
-435.14
-454.61
-472.18
-485.53
-495.42
-504.44
-513.75
-520.19
-516.58
-495.36
-453.21
-393.58
-325.22
-257.76
-197.27
-144.55
-96.44
-48.63
1.56
54.56
109.54
165.72
222.97
281.35
339.45
393.13
435.84
460.44
461.70
438.15
392.62
330.82
259.97
186.89
117.44
57.40
12.60
-11.69
-12.47
8.60
44.13
83.12
114.35
130.24
130.28
120.21
107.72
97.37
87.62
71.42
41.39
-6.34
-70.31
-142.95
-213.62
-272.40
-312.63
-331.46
-329.46
-307.96
-269.34
-217.97
-158.04
-92.99
-25.01
44.72
117.32
185.37
241.09
283.54
308.57
313.16
297.06
263.31
217.35
165.36
111.37
57.76
4.59
-49.20
-101.74
-146.44
-173.65
-175.08
-148.08
-97.99
-35.76
25.83
75.94
109.44
126.88
130.71
121.47
98.01
60.22
12.59
-35.80
-75.05
-99.34
-109.63
-114.22
-125.92
-154.24
-199.98
-254.05
-301.81
-329.61
-330.59
-305.00
-259.02
-202.58
-143.35
-84.19
-23.48
42.11
117.88
195.48
259.33
302.15
317.51
303.89
266.30
214.65
160.01
110.32
66.85
26.21
-17.16
-68.67
-128.01
-187.73
-235.39
-258.32
-248.49
-206.30
-139.13
-59.00
19.60
84.43
126.93
142.53
130.74
95.74
46.74
-2.30
-36.66
-47.40
-35.07
-10.57
8.89
7.17
-23.84
-80.78
-150.17
-214.32
-258.58
-275.47
-265.38
-234.01
-188.96
-136.88
-82.59
-29.38
20.49
65.55
106.37
145.96
188.74
237.97
292.69
346.36
388.53
408.87
401.36
366.30
309.50
239.49
165.32
95.71
39.26
3.97
-4.98
11.59
45.29
82.49
109.36
117.79
108.12
86.98
61.80
35.96
7.26
-28.95
-74.99
-128.06
-181.26
-227.76
-264.97
-295.59
-324.98
-356.68
-389.01
-414.99
-425.48
-413.76
-378.62
-324.87
-261.10
-196.22
-136.69
-85.05
-40.37
0.50
41.55
86.67
138.87
199.93
269.29
343.21
414.64
474.56
514.63
530.23
522.12
495.92
459.47
419.39
378.71
336.55
289.81
235.84
174.83
110.90
51.56
5.51
-20.36
-23.90
-9.32
13.65
32.87
38.13
24.41
-7.15
-51.03
-100.62
-151.33
-202.05
-254.26
-309.76
-368.01
-424.74
-472.54
-503.16
-510.75
-494.32
-458.14
-409.84
-356.96
-304.00
-251.37
-196.81
-137.88
-73.98
-6.78
60.77
125.79
185.71
237.84
278.84
304.91
312.99
302.09
273.50
230.07
174.81
110.50
40.64
-28.94
-89.25
-129.73
-142.20
-124.55
-82.55
-27.77
27.05
72.40
103.79
120.75
124.09
114.35
91.81
57.84
15.74
-29.94
-75.11
-117.80
-158.09
-196.51
-232.06
-261.32
-279.44
-282.40
-269.01
-241.21
-203.29
-159.97
-114.99
-70.30
-25.93
19.66
69.07
124.94
188.08
256.16
323.08
379.95
417.69
430.29
417.20
383.58
338.13
289.42
242.48
197.41
150.53
97.62
37.60
-25.55
-83.20
-125.07
-142.79
-133.04
-98.71
-47.88
8.50
59.46
95.76
111.76
106.05
81.59
44.55
2.71
-36.65
-68.57
-91.46
-107.78
-122.58
-141.12
-166.33
-197.25
-228.60
-252.58
-261.65
-251.21
-221.83
-177.86
-124.49
-64.65
1.82
76.36
157.76
237.03
303.29
344.31
352.49
328.87
283.19
229.60
180.94
144.01
117.83
95.97
69.50
31.18
-21.47
-85.12
-151.91
-211.00
-250.85
-262.60
-242.62
-195.11
-131.49
-67.08
-16.74
8.19
3.87
-24.25
-63.48
-98.26
-116.66
-115.81
-101.80
-86.94
-85.64
-106.81
-149.22
-202.34
-251.26
-283.32
-293.35
-282.28
-254.19
-215.11
-169.07
-117.17
-59.12
4.96
79.07
156.06
220.61
268.40
297.25
305.91
295.61
270.00
234.01
191.86
144.12
89.63
27.53
-42.31
-115.14
-180.48
-225.29
-239.35
-219.39
-170.99
-104.59
-31.24
38.52
96.37
136.00
152.50
143.30
110.36
60.98
7.27
-38.36
-69.90
-89.76
-106.58
-129.51
-162.22
-200.27
-233.38
-250.50
-245.31
-219.36
-179.89
-135.68
-92.94
-53.33
-15.06
24.82
68.64
117.67
171.92
230.50
291.28
349.85
399.50
432.69
443.65
430.79
397.63
351.26
299.32
246.82
194.50
139.80
79.58
13.43
-54.50
-115.94
-160.80
-180.55
-171.21
-134.58
-77.86
-12.04
50.69
99.35
127.07
133.15
122.82
104.92
87.84
75.67
66.87
55.79
35.59
1.95
-45.08
-101.84
-162.81
-221.84
-272.80
-309.19
-324.62
-315.28
-281.19
-226.26
-156.79
-79.32
0.93
79.26
150.57
209.01
247.86
262.80
254.58
229.25
195.94
163.36
136.68
115.28
100.45
92.67
90.99
94.10
100.99
110.34
120.10
126.95
128.81
125.26
116.43
103.18
86.34
65.93
40.31
10.71
-22.81
-59.55
-98.03
-136.89
-174.83
-211.03
-245.82
-281.14
-319.79
-364.34
-414.20
-464.20
-505.71
-528.99
-527.05
-498.70
-449.31
-388.38
-326.12
-269.18
-219.30
-174.49
-131.27
-86.60
-38.43
14.75
74.12
139.48
207.96
273.32
326.82
360.25
368.85
353.17
317.95
269.37
212.13
149.25
83.48
19.81
-33.76
-68.15
-76.75
-58.40
-17.76
36.92
97.04
155.64
207.29
247.04
269.68
270.61
247.95
203.95
144.48
76.51
5.23
-67.01
-139.26
-209.33
-271.93
-319.32
-344.34
-344.06
-321.42
-284.23
-241.83
-201.46
-166.31
-135.25
-104.53
-69.51
-26.40
26.34
86.65
148.44
202.26
237.92
248.22
231.78
193.15
140.13
79.92
16.74
-47.61
-111.07
-169.07
-214.55
-240.75
-244.76
-228.98
-199.74
-163.50
-123.85
-81.43
-36.91
5.76
38.37
51.68
41.06
10.74
-26.62
-55.62
-66.03
-58.25
-42.59
-33.23
-39.69
-61.36
-87.97
-105.52
-104.02
-82.01
-46.01
-5.72
31.58
64.15
95.39
130.77
174.71
228.64
290.44
355.06
415.32
463.21
491.73
496.80
478.77
442.33
394.91
343.94
294.55
248.52
204.75
160.49
112.70
59.00
-1.14
-65.40
-128.20
-180.76
-213.35
-218.29
-193.12
-142.42
-77.54
-13.75
34.31
56.89
51.76
23.66
-18.20
-64.04
-106.64
-143.06
-174.12
-202.38
-229.63
-255.10
-275.40
-286.00
-283.08
-265.10
-233.39
-191.34
-143.00
-91.56
-38.40
16.88
75.94
140.54
210.87
284.75
357.08
420.38
466.50
489.28
486.95
462.91
424.70
380.75
337.39
296.84
257.93
218.50
177.91
137.60
99.74
65.43
34.15
5.28
-19.92
-37.62
-43.34
-35.20
-16.87
2.56
12.22
4.22
-22.74
-63.63
-110.53
-156.93
-200.50
-242.90
-287.62
-337.32
-392.39
-450.48
-506.96
-555.79
-590.61
-606.55
-601.55
-577.05
-537.38
-488.28
-435.01
-381.42
-330.02
-282.32
-239.28
-201.07
-166.54
-133.18
-97.73
-57.33
-10.18
44.21
104.98
169.75
234.13
291.27
332.41
349.20
337.10
297.97
240.32
176.79
120.13
79.72
60.19
62.51
85.48
126.41
180.29
238.36
288.25
316.90
315.52
284.14
232.20
174.76
125.48
90.23
64.66
37.08
-4.65
-66.43
-144.06
-224.59
-292.04
-334.11
-346.58
-333.46
-303.75
-266.41
-226.63
-185.21
-140.23
-89.57
-32.72
28.92
92.46
154.06
208.89
251.49
277.25
284.80
277.59
263.28
250.24
243.39
241.30
236.81
221.03
188.35
139.60
81.81
24.95
-21.86
-52.77
-65.03
-57.64
-30.33
15.85
77.00
144.90
207.49
251.81
267.94
252.51
209.86
149.78
83.22
17.70
-44.98
-107.57
-173.48
-242.61
-309.27
-363.44
-394.96
-398.04
-373.88
-330.00
-276.75
-223.17
-173.89
-128.99
-85.88
-41.98
3.93
51.96
102.16
155.09
210.88
267.65
320.51
362.29
385.87
386.87
365.43
326.02
275.57
221.19
168.69
122.01
83.41
53.51
30.91
11.66
-10.53
-42.70
-89.57
-150.48
-217.93
-278.65
-317.44
-322.53
-290.19
-226.70
-146.82
-69.13
-10.52
17.94
13.23
-19.77
-70.10
-123.47
-166.35
-190.15
-194.50
-187.48
-181.94
-189.15
-212.70
-246.65
-278.36
-295.04
-289.80
-263.85
-223.96
-177.23
-127.11
-73.36
-15.11
45.53
102.40
147.67
175.64
185.77
182.61
173.20
163.09
153.83
143.03
126.29
100.57
66.53
29.07
-4.11
-25.34
-29.69
-16.59
10.19
44.03
77.46
103.81
118.03
117.01
99.72
67.67
25.03
-22.00
-66.91
-104.80
-133.68
-154.15
-167.65
-174.65
-173.75
-162.67
-140.01
-106.98
-67.85
-28.78
4.07
26.74
38.51
42.07
42.46
45.49
55.88
75.58
103.22
134.56
164.07
186.82
200.01
203.49
199.35
191.04
182.03
174.92
170.46
167.42
162.84
153.18
135.73
109.95
78.19
45.20
16.85
-2.05
-9.64
-7.87
-1.89
1.95
-1.31
-12.81
-29.29
-44.51
-52.78
-52.27
-46.54
-43.24
-50.43
-72.56
-108.20
-150.71
-190.86
-220.40
-234.50
-232.74
-218.27
-197.11
-177.09
-166.62
-171.92
-195.33
-234.11
-280.97
-326.04
-359.62
-375.38
-371.93
-352.54
-322.46
-287.04
-250.57
-216.03
-185.20
-158.03
-133.88
-111.92
-91.99
-72.46
-51.65
-28.75
-4.77
18.03
39.63
59.86
77.89
90.19
97.06
100.45
102.80
105.01
106.87
112.98
126.16
145.64
162.75
175.31
184.30
192.73
201.91
212.08
231.35
264.75
310.70
354.26
390.26
418.58
442.74
464.20
483.30
510.80
553.20
608.23
655.99
689.26
707.56
715.67
716.29
641.95
461.64
195.36
-34.66
-204.08
-316.43
-400.06
-463.80
-512.76
-550.11
-567.04
-558.16
-526.57
-493.01
-465.59
-445.83
-430.01
-416.54
-404.69
-385.68
-353.98
-310.92
-271.55
-241.34
-220.61
-205.72
-194.65
-186.10
-173.90
-154.13
-127.34
-102.84
-83.97
-70.86
-61.08
-53.19
-46.20
-36.86
-23.08
-5.05
12.79
28.95
43.48
57.63
71.99
86.79
103.12
122.02
144.13
168.61
194.99
222.00
247.25
267.20
278.40
278.66
267.60
246.45
217.43
183.21
146.77
111.35
80.25
56.30
41.09
34.58
35.11
40.09
46.86
53.40
58.54
61.76
62.74
61.07
55.83
45.96
30.75
10.59
-12.63
-35.78
-55.57
-69.99
-79.34
-86.09
-93.64
-104.74
-120.28
-139.13
-158.92
-177.02
-191.37
-200.76
-204.67
-203.03
-196.02
-183.97
-167.21
-145.85
-119.63
-87.81
-49.38
-3.46
50.04
109.84
173.00
235.23
291.70
338.22
372.21
393.05
401.53
398.96
386.44
364.79
335.11
299.40
260.73
222.44
187.04
155.45
127.00
100.55
75.52
52.50
32.75
16.97
4.29
-7.73
-21.96
-40.17
-61.85
-84.38
-104.12
-117.96
-124.38
-123.68
-117.46
-107.84
-96.91
-86.32
-77.22
-69.96
-64.12
-58.77
-52.88
-45.97
-38.46
-31.50
-26.44
-24.23
-25.05
-28.38
-33.34
-39.06
-44.88
-50.25
-54.59
-57.20
-57.40
-54.81
-49.52
-42.25
-34.14
-26.42
-20.03
-15.40
-12.39
-10.55
-9.34
-8.42
-7.68
-7.15
-6.92
-7.02
-7.36
-7.74
-8.00
-8.04
-7.98
-8.08
-8.67
-9.93
-11.74
-13.64
-14.93
-14.95
-13.34
-10.17
-5.87
-1.04
3.85
8.57
13.18
17.87
22.74
27.63
32.13
35.67
37.70
37.93
36.42
33.51
29.73
25.60
21.54
17.80
14.53
11.81
9.63
7.89
6.38
4.82
2.89
0.34
-2.94
-6.88
-11.13
-15.18
-18.41
-20.32
-20.60
-19.21
-16.34
-12.33
-7.54
-2.35
2.82
7.47
11.05
13.15
13.62
12.69
10.88
8.84
7.06
5.76
4.87
4.19
3.52
2.82
2.10
1.34
0.36
-1.19
-3.69
-7.31
-11.92
-17.01
-21.89
-25.87
-28.48
-29.52
-29.05
-27.28
-24.45
-20.70
-16.09
-10.69
-4.70
1.49
7.31
12.13
15.46
17.11
17.26
16.32
14.86
13.31
11.88
10.54
9.08
7.28
5.02
2.41
-0.21
-2.36
