1479161668.00
64.000000
-0.00
-0.00
-0.00
-0.00
-0.00
-0.00
-0.00
-0.00
-0.00
-0.00
0.00
0.01
0.01
-0.00
-0.03
-0.05
-0.05
0.00
0.13
0.36
0.66
1.01
1.38
1.72
2.05
2.39
2.78
3.24
3.83
4.48
5.14
5.71
6.15
6.47
6.74
7.07
7.57
8.35
9.34
10.39
11.36
12.14
12.78
13.45
14.42
15.88
18.09
20.83
23.77
26.52
28.84
30.80
32.77
35.32
38.90
43.96
50.10
56.62
62.73
67.86
72.06
75.98
80.64
86.91
95.52
105.88
116.84
127.02
135.46
142.10
147.85
154.67
161.90
172.18
186.00
202.88
220.82
236.22
244.55
241.59
224.79
194.18
152.73
104.31
52.80
0.67
-51.49
-104.40
-158.97
-215.00
-270.47
-321.07
-362.09
-389.16
-399.88
-394.68
-376.62
-350.31
-320.17
-289.44
-259.55
-231.17
-204.68
-180.61
-159.70
-142.26
-127.77
-114.88
-102.05
-88.22
-73.46
-58.68
-45.29
-34.38
-26.28
-20.40
-15.58
-10.61
-4.75
1.96
8.88
15.07
19.76
22.66
24.06
24.64
25.18
26.20
27.79
29.67
31.36
32.41
32.62
32.11
31.21
30.24
29.43
28.79
28.22
27.59
26.82
25.95
25.06
24.20
23.38
22.51
21.53
20.43
19.31
18.26
17.40
16.72
16.15
15.58
14.92
14.18
13.41
12.70
12.09
11.59
11.17
10.80
10.44
10.10
9.76
9.44
9.15
8.89
8.67
8.47
8.27
8.04
7.80
7.57
7.34
7.13
6.90
6.65
6.36
6.08
5.85
5.71
5.65
5.62
5.57
5.45
5.28
5.08
4.87
4.65
4.42
4.16
3.90
3.70
3.59
3.60
3.70
3.84
3.95
3.97
3.92
3.84
3.78
3.79
3.87
3.98
4.06
4.08
4.02
3.89
3.72
3.54
3.34
3.11
2.84
2.53
2.24
2.07
2.05
2.16
2.28
2.27
2.07
1.75
1.45
1.33
1.42
1.63
1.78
1.76
1.54
1.21
0.88
0.63
0.49
0.44
0.49
0.67
0.97
1.30
1.56
1.63
1.49
1.23
1.01
0.99
1.21
1.60
2.01
2.33
2.49
2.52
2.47
2.37
2.21
1.94
1.56
1.12
0.73
0.54
0.63
0.95
1.35
1.61
1.59
1.28
0.83
0.45
0.32
0.50
0.90
1.35
1.68
1.80
1.72
1.55
1.38
1.24
1.10
0.92
0.67
0.41
0.22
0.19
0.35
0.64
0.95
1.16
1.21
1.09
0.82
0.46
0.08
-0.26
-0.47
-0.49
-0.31
0.05
0.47
0.85
1.06
1.08
0.96
0.80
0.71
0.74
0.87
1.03
1.13
1.13
1.01
0.84
0.67
0.56
0.54
0.59
0.68
0.74
0.73
0.62
0.44
0.24
0.11
0.10
0.20
0.32
0.37
0.32
0.21
0.15
0.23
0.46
0.75
0.94
0.93
0.73
0.44
0.21
0.15
0.26
0.42
0.53
0.54
0.47
0.43
0.50
0.73
1.05
1.33
1.46
1.38
1.11
0.75
0.43
0.26
0.25
0.35
0.46
0.50
0.42
0.26
0.09
-0.03
-0.04
0.07
0.26
0.47
0.67
0.82
0.89
0.88
0.77
0.54
0.22
-0.13
-0.43
-0.58
-0.55
-0.40
-0.25
-0.21
-0.36
-0.62
-0.84
-0.85
-0.58
-0.11
0.38
0.70
0.78
0.65
0.47
0.35
0.36
0.44
0.50
0.48
0.38
0.26
0.22
0.30
0.46
0.64
0.70
0.61
0.35
0.00
-0.30
-0.47
-0.44
-0.24
0.06
0.36
0.59
0.74
0.81
0.85
0.85
0.84
0.81
0.77
0.71
0.58
0.36
0.03
-0.38
-0.73
-0.89
-0.76
-0.36
0.17
0.62
0.82
0.70
0.35
-0.08
-0.47
-0.71
-0.83
-0.84
-0.77
-0.60
-0.31
0.10
0.55
0.95
1.21
1.28
1.14
0.83
0.44
0.04
-0.26
-0.39
-0.35
-0.20
-0.05
0.01
-0.05
-0.17
-0.26
-0.26
-0.14
0.03
0.19
0.31
0.38
0.46
0.56
0.67
0.73
0.68
0.48
0.16
-0.19
-0.45
-0.53
-0.39
-0.10
0.22
0.44
0.50
0.41
0.23
0.02
-0.19
-0.39
-0.58
-0.72
-0.71
-0.52
-0.12
0.38
0.85
1.16
1.24
1.10
0.82
0.51
0.24
0.02
-0.14
-0.27
-0.36
-0.36
-0.25
-0.03
0.20
0.37
0.39
0.25
0.02
-0.21
-0.33
-0.34
-0.27
-0.20
-0.19
-0.22
-0.25
-0.21
-0.04
0.25
0.61
0.91
1.04
0.91
0.50
-0.05
-0.58
-0.89
-0.89
-0.64
-0.30
-0.04
0.05
-0.02
-0.13
-0.16
-0.06
0.14
0.37
0.58
0.77
0.96
1.14
1.24
1.19
0.94
0.54
0.10
-0.27
-0.49
-0.59
-0.62
-0.68
-0.77
-0.88
-0.93
-0.86
-0.65
-0.36
-0.08
0.11
0.17
0.14
0.12
0.21
0.44
0.72
0.94
0.99
0.82
0.54
0.27
0.15
0.18
0.33
0.49
0.59
0.60
0.56
0.51
0.43
0.30
0.08
-0.21
-0.52
-0.76
-0.84
-0.75
-0.54
-0.28
-0.04
0.15
0.27
0.32
0.30
0.18
-0.03
-0.27
-0.46
-0.51
-0.39
-0.10
0.24
0.52
0.64
0.55
0.28
-0.08
-0.41
-0.63
-0.67
-0.56
-0.33
-0.09
0.11
0.21
0.19
0.11
0.02
-0.00
0.06
0.18
0.28
0.30
0.22
0.06
-0.07
-0.11
-0.04
0.09
0.20
0.23
0.17
0.06
-0.02
-0.05
-0.01
0.04
0.02
-0.10
-0.31
-0.53
-0.67
-0.66
-0.53
-0.35
-0.21
-0.17
-0.21
-0.24
-0.20
-0.05
0.15
0.33
0.46
0.53
0.59
0.69
0.80
0.90
0.93
0.88
0.77
0.63
0.50
0.36
0.19
-0.02
-0.25
-0.43
-0.53
-0.52
-0.45
-0.39
-0.41
-0.55
-0.79
-1.04
-1.21
-1.19
-0.93
-0.48
0.07
0.58
0.93
1.03
0.86
0.47
-0.01
-0.43
-0.63
-0.55
-0.21
0.24
0.62
0.78
0.69
0.44
0.23
0.21
0.45
0.82
1.12
1.15
0.84
0.27
-0.31
-0.67
-0.67
-0.38
-0.00
0.23
0.18
-0.13
-0.54
-0.85
-0.92
-0.73
-0.36
0.01
0.23
0.22
0.00
-0.32
-0.60
-0.72
-0.62
-0.33
0.05
0.40
0.61
0.63
0.50
0.33
0.21
0.18
0.25
0.31
0.32
0.24
0.12
0.04
0.06
0.15
0.25
0.25
0.09
-0.19
-0.51
-0.77
-0.89
-0.86
-0.71
-0.46
-0.14
0.18
0.46
0.59
0.57
0.40
0.19
0.02
-0.03
0.03
0.13
0.22
0.26
0.28
0.35
0.47
0.64
0.78
0.82
0.73
0.48
0.11
-0.30
-0.63
-0.76
-0.60
-0.19
0.35
0.84
1.12
1.13
0.89
0.50
0.07
-0.34
-0.69
-0.94
-1.05
-0.98
-0.72
-0.33
0.05
0.31
0.35
0.20
-0.03
-0.25
-0.39
-0.43
-0.42
-0.40
-0.35
-0.27
-0.15
0.01
0.13
0.17
0.10
-0.01
-0.09
-0.06
0.08
0.27
0.42
0.46
0.37
0.19
-0.03
-0.24
-0.41
-0.52
-0.56
-0.51
-0.40
-0.24
-0.09
0.02
0.09
0.15
0.23
0.35
0.45
0.47
0.35
0.08
-0.28
-0.61
-0.82
-0.86
-0.77
-0.57
-0.30
0.05
0.47
0.95
1.39
1.66
1.69
1.48
1.12
0.74
0.44
0.29
0.23
0.20
0.15
0.07
0.01
-0.01
0.04
0.11
0.14
0.09
-0.08
-0.32
-0.58
-0.77
-0.83
-0.75
-0.60
-0.47
-0.45
-0.55
-0.75
-0.98
-1.17
-1.30
-1.37
-1.40
-1.38
-1.25
-0.97
-0.54
-0.03
0.42
0.70
0.72
0.54
0.30
0.19
0.32
0.68
1.16
1.58
1.80
1.78
1.56
1.22
0.84
0.44
0.03
-0.36
-0.65
-0.77
-0.71
-0.51
-0.29
-0.15
-0.14
-0.24
-0.38
-0.50
-0.56
-0.56
-0.52
-0.46
-0.40
-0.36
-0.35
-0.34
-0.31
-0.23
-0.11
0.02
0.15
0.26
0.41
0.63
0.92
1.19
1.34
1.25
0.89
0.35
-0.17
-0.42
-0.27
0.27
1.00
1.65
1.99
1.92
1.49
0.81
0.03
-0.78
-1.54
-2.21
-2.71
-2.96
-2.89
-2.54
-2.01
-1.41
-0.86
-0.43
-0.10
0.15
0.36
0.51
0.60
0.59
0.52
0.43
0.38
0.42
0.53
0.63
0.63
0.48
0.25
0.05
0.01
0.14
0.39
0.59
0.64
0.51
0.27
0.06
-0.08
-0.14
-0.20
-0.29
-0.41
-0.49
-0.46
-0.31
-0.11
0.06
0.13
0.15
0.16
0.24
0.36
0.46
0.46
0.37
0.23
0.14
0.16
0.29
0.48
0.64
0.71
0.67
0.52
0.30
0.10
-0.02
0.03
0.21
0.43
0.57
0.49
0.18
-0.25
-0.66
-0.90
-0.95
-0.90
-0.87
-0.90
-0.99
-1.05
-1.07
-1.06
-1.12
-1.28
-1.48
-1.60
-1.50
-1.16
-0.69
-0.27
-0.05
-0.03
-0.07
-0.01
0.23
0.60
0.95
1.15
1.19
1.12
1.07
1.06
1.06
0.98
0.78
0.51
0.29
0.21
0.29
0.45
0.56
0.52
0.35
0.15
0.03
0.05
0.16
0.29
0.32
0.25
0.12
0.02
0.02
0.10
0.21
0.24
0.15
-0.05
-0.27
-0.41
-0.43
-0.34
-0.20
-0.05
0.11
0.26
0.43
0.57
0.63
0.56
0.36
0.10
-0.14
-0.28
-0.30
-0.24
-0.16
-0.13
-0.14
-0.19
-0.20
-0.19
-0.15
-0.12
-0.12
-0.11
-0.09
-0.03
0.06
0.13
0.15
0.10
-0.01
-0.16
-0.30
-0.44
-0.56
-0.68
-0.76
-0.76
-0.67
-0.49
-0.30
-0.15
-0.09
-0.11
-0.18
-0.23
-0.24
-0.20
-0.12
0.01
0.22
0.47
0.73
0.89
0.92
0.81
0.67
0.60
0.68
0.86
0.98
0.92
0.61
0.13
-0.38
-0.75
-0.91
-0.88
-0.73
-0.53
-0.30
-0.06
0.16
0.32
0.34
0.23
0.02
-0.20
-0.35
-0.37
-0.29
-0.15
-0.02
0.06
0.09
0.07
0.01
-0.08
-0.19
-0.33
-0.46
-0.54
-0.55
-0.46
-0.30
-0.13
0.02
0.15
0.27
0.39
0.50
0.57
0.54
0.41
0.24
0.13
0.16
0.31
0.50
0.58
0.46
0.17
-0.16
-0.39
-0.43
-0.30
-0.11
0.03
0.05
-0.04
-0.19
-0.32
-0.41
-0.43
-0.39
-0.29
-0.16
-0.06
-0.01
-0.03
-0.10
-0.15
-0.14
-0.04
0.12
0.29
0.42
0.50
0.55
0.57
0.55
0.45
0.27
0.05
-0.11
-0.16
-0.08
0.08
0.27
0.44
0.58
0.67
0.68
0.60
0.38
0.08
-0.21
-0.37
-0.31
-0.04
0.33
0.66
0.84
0.82
0.67
0.44
0.19
-0.08
-0.39
-0.72
-1.04
-1.23
-1.23
-1.03
-0.71
-0.42
-0.28
-0.32
-0.46
-0.54
-0.44
-0.13
0.31
0.72
0.97
1.02
0.90
0.71
0.51
0.32
0.12
-0.09
-0.28
-0.39
-0.40
-0.35
-0.32
-0.40
-0.61
-0.85
-0.99
-0.94
-0.68
-0.34
-0.06
0.03
-0.07
-0.27
-0.42
-0.43
-0.24
0.08
0.43
0.66
0.71
0.57
0.28
-0.04
-0.31
-0.50
-0.60
-0.65
-0.64
-0.58
-0.45
-0.25
-0.00
0.22
0.37
0.43
0.43
0.41
0.42
0.46
0.51
0.52
0.48
0.40
0.29
0.17
0.03
-0.13
-0.27
-0.34
-0.31
-0.17
0.02
0.17
0.19
0.09
-0.08
-0.26
-0.37
-0.42
-0.44
-0.42
-0.38
-0.27
-0.09
0.12
0.28
0.35
0.33
0.25
0.16
0.08
0.00
-0.05
-0.09
-0.07
0.03
0.21
0.41
0.56
0.59
0.51
0.34
0.15
-0.02
-0.15
-0.25
-0.31
-0.32
-0.27
-0.16
-0.02
0.11
0.19
0.22
0.19
0.10
-0.05
-0.27
-0.53
-0.79
-0.97
-0.97
-0.79
-0.44
-0.02
0.36
0.63
0.73
0.70
0.55
0.36
0.17
0.03
-0.06
-0.10
-0.10
-0.09
-0.08
-0.04
0.07
0.29
0.57
0.84
0.99
0.95
0.71
0.35
-0.01
-0.25
-0.34
-0.31
-0.20
-0.09
-0.05
-0.10
-0.24
-0.42
-0.56
-0.59
-0.50
-0.34
-0.19
-0.13
-0.13
-0.12
-0.04
0.13
0.33
0.44
0.41
0.28
0.15
0.11
0.14
0.19
0.16
0.04
-0.13
-0.26
-0.29
-0.25
-0.18
-0.15
-0.17
-0.23
-0.28
-0.29
-0.24
-0.17
-0.11
-0.11
-0.16
-0.24
-0.30
-0.28
-0.12
0.16
0.52
0.83
0.98
0.91
0.65
0.30
-0.00
-0.15
-0.15
-0.08
-0.06
-0.16
-0.37
-0.59
-0.70
-0.64
-0.41
-0.10
0.20
0.42
0.58
0.70
0.81
0.90
0.94
0.89
0.77
0.61
0.47
0.37
0.32
0.29
0.26
0.24
0.21
0.16
0.06
-0.08
-0.23
-0.30
-0.24
-0.02
0.28
0.51
0.58
0.47
0.27
0.11
0.11
0.29
0.57
0.81
0.85
0.59
-0.02
-0.92
-2.00
-3.01
-3.73
-3.97
-3.67
-2.95
-2.04
-1.16
-0.48
-0.00
0.34
0.62
0.84
0.97
0.99
0.91
0.83
0.85
1.00
1.21
1.33
1.23
0.84
0.24
-0.40
-0.91
-1.15
-1.11
-0.87
-0.56
-0.30
-0.14
-0.12
-0.17
-0.24
-0.25
-0.17
0.02
0.25
0.46
0.58
0.58
0.48
0.35
0.29
0.33
0.52
0.82
1.15
1.42
1.54
1.43
1.11
0.63
0.14
-0.20
-0.29
-0.13
0.20
0.51
0.65
0.56
0.28
-0.06
-0.33
-0.46
-0.46
-0.41
-0.40
-0.47
-0.62
-0.81
-0.99
-1.12
-1.21
-1.24
-1.22
-1.12
-0.97
-0.75
-0.50
-0.23
0.01
0.20
0.31
0.36
0.35
0.32
0.31
0.31
0.32
0.32
0.33
0.37
0.44
0.55
0.62
0.62
0.50
0.29
0.04
-0.19
-0.37
-0.52
-0.67
-0.83
-0.94
-0.95
-0.80
-0.50
-0.12
0.23
0.44
0.47
0.34
0.15
0.03
0.08
0.32
0.69
1.06
1.30
1.37
1.28
1.15
1.06
1.02
0.99
0.89
0.69
0.43
0.22
0.12
0.13
0.18
0.17
0.02
-0.23
-0.52
-0.78
-0.97
-1.11
-1.22
-1.32
-1.34
-1.23
-0.96
-0.58
-0.22
-0.01
-0.00
-0.16
-0.36
-0.48
-0.45
-0.28
-0.07
0.10
0.20
0.24
0.32
0.51
0.79
1.07
1.22
1.14
0.86
0.48
0.13
-0.07
-0.11
-0.09
-0.12
-0.27
-0.50
-0.73
-0.84
-0.80
-0.67
-0.53
-0.44
-0.39
-0.34
-0.22
-0.03
0.19
0.37
0.47
0.50
0.50
0.49
0.48
0.47
0.43
0.36
0.25
0.09
-0.13
-0.37
-0.56
-0.61
-0.48
-0.19
0.17
0.46
0.58
0.53
0.36
0.20
0.13
0.20
0.37
0.55
0.65
0.59
0.32
-0.09
-0.56
-0.98
-1.26
-1.37
-1.33
-1.17
-0.94
-0.68
-0.41
-0.16
0.03
0.14
0.16
0.09
-0.02
-0.13
-0.24
-0.32
-0.40
-0.45
-0.43
-0.33
-0.13
0.12
0.35
0.50
0.52
0.46
0.36
0.27
0.20
0.14
0.05
-0.09
-0.26
-0.42
-0.52
-0.50
-0.34
-0.06
0.29
0.62
0.84
0.90
0.81
0.61
0.40
0.22
0.11
0.07
0.10
0.20
0.36
0.53
0.66
0.67
0.56
0.38
0.21
0.13
0.13
0.15
0.13
0.02
-0.12
-0.24
-0.27
-0.24
-0.18
-0.18
-0.24
-0.33
-0.39
-0.37
-0.29
-0.17
-0.06
0.02
0.06
0.07
0.01
-0.12
-0.34
-0.59
-0.80
-0.87
-0.78
-0.52
-0.19
0.14
0.38
0.49
0.48
0.40
0.28
0.17
0.14
0.20
0.34
0.49
0.58
0.54
0.34
0.03
-0.32
-0.60
-0.73
-0.67
-0.45
-0.14
0.18
0.41
0.52
0.49
0.38
0.22
0.05
-0.12
-0.29
-0.46
-0.57
-0.62
-0.56
-0.40
-0.16
0.12
0.39
0.62
0.78
0.85
0.83
0.72
0.58
0.42
0.24
0.01
-0.29
-0.63
-0.93
-1.07
-0.99
-0.70
-0.31
0.04
0.24
0.25
0.12
-0.06
-0.23
-0.31
-0.30
-0.20
-0.03
0.17
0.34
0.39
0.30
0.07
-0.22
-0.49
-0.68
-0.74
-0.68
-0.51
-0.26
0.05
0.35
0.61
0.77
0.81
0.72
0.53
0.30
0.11
0.01
0.05
0.20
0.39
0.54
0.59
0.52
0.41
0.32
0.32
0.39
0.46
0.45
0.32
0.11
-0.11
-0.26
-0.30
-0.22
-0.08
0.05
0.12
0.10
0.00
-0.15
-0.30
-0.39
-0.41
-0.36
-0.29
-0.27
-0.34
-0.47
-0.59
-0.63
-0.53
-0.30
-0.03
0.19
0.30
0.29
0.20
0.08
-0.00
-0.05
-0.09
-0.17
-0.28
-0.40
-0.47
-0.43
-0.28
-0.06
0.16
0.29
0.31
0.25
0.16
0.14
0.22
0.37
0.51
0.56
0.46
0.22
-0.07
-0.32
-0.45
-0.45
-0.36
-0.25
-0.16
-0.06
0.08
0.28
0.51
0.73
0.83
0.76
0.49
0.07
-0.39
-0.78
-0.98
-0.96
-0.75
-0.46
-0.18
0.00
0.08
0.08
0.06
0.01
-0.07
-0.21
-0.37
-0.49
-0.51
-0.39
-0.14
0.16
0.45
0.68
0.86
0.99
1.06
1.05
0.91
0.62
0.22
-0.21
-0.55
-0.68
-0.57
-0.27
0.09
0.38
0.47
0.35
0.07
-0.26
-0.55
-0.72
-0.79
-0.77
-0.68
-0.51
-0.24
0.13
0.58
1.01
1.33
1.43
1.30
1.00
0.62
0.26
-0.03
-0.25
-0.40
-0.50
-0.53
-0.49
-0.36
-0.17
0.02
0.16
0.18
0.06
-0.19
-0.51
-0.82
-1.04
-1.14
-1.09
-0.92
-0.68
-0.39
-0.10
0.14
0.28
0.28
0.13
-0.12
-0.41
-0.61
-0.67
-0.58
-0.38
-0.17
0.01
0.15
0.27
0.41
0.53
0.59
0.55
0.43
0.27
0.13
0.09
0.19
0.39
0.63
0.84
0.94
0.89
0.70
0.42
0.09
-0.23
-0.50
-0.69
-0.77
-0.75
-0.63
-0.44
-0.21
0.03
0.22
0.35
0.41
0.42
0.36
0.25
0.09
-0.09
-0.23
-0.26
-0.14
0.08
0.33
0.50
0.52
0.43
0.31
0.20
0.11
0.00
-0.21
-0.52
-0.86
-1.08
-1.07
-0.84
-0.47
-0.11
0.13
0.20
0.12
-0.03
-0.17
-0.26
-0.26
-0.17
-0.03
0.10
0.18
0.19
0.13
0.08
0.09
0.20
0.39
0.58
0.69
0.66
0.54
0.38
0.28
0.27
0.34
0.43
0.49
0.48
0.42
0.31
0.17
-0.01
-0.22
-0.50
-0.80
-1.07
-1.25
-1.26
-1.08
-0.73
-0.30
0.11
0.36
0.38
0.20
-0.08
-0.33
-0.43
-0.33
-0.08
0.22
0.45
0.55
0.49
0.29
0.04
-0.20
-0.35
-0.36
-0.23
0.01
0.30
0.58
0.78
0.85
0.82
0.70
0.57
0.46
0.38
0.32
0.24
0.15
0.05
-0.02
-0.03
0.02
0.10
0.13
0.06
-0.12
-0.38
-0.62
-0.73
-0.64
-0.37
0.00
0.34
0.53
0.49
0.25
-0.13
-0.54
-0.86
-0.99
-0.89
-0.55
-0.04
0.47
0.85
0.99
0.86
0.55
0.16
-0.18
-0.41
-0.48
-0.42
-0.25
0.01
0.32
0.60
0.77
0.74
0.48
0.04
-0.48
-0.91
-1.10
-0.99
-0.64
-0.21
0.15
0.31
0.27
0.11
-0.06
-0.16
-0.17
-0.11
-0.07
-0.07
-0.14
-0.24
-0.32
-0.33
-0.23
-0.05
0.16
0.32
0.39
0.36
0.27
0.17
0.07
-0.00
-0.08
-0.15
-0.23
-0.28
-0.30
-0.29
-0.26
-0.23
-0.20
-0.15
-0.10
-0.05
-0.04
-0.10
-0.24
-0.44
-0.65
-0.82
-0.87
-0.79
-0.60
-0.37
-0.20
-0.11
-0.08
-0.03
0.11
0.36
0.66
0.92
1.06
1.08
0.99
0.84
0.69
0.52
0.33
0.12
-0.08
-0.20
-0.19
-0.03
0.23
0.51
0.72
0.79
0.71
0.54
0.33
0.15
0.05
0.02
0.05
0.09
0.10
0.07
0.03
0.02
0.07
0.21
0.38
0.50
0.49
0.33
0.10
-0.11
-0.18
-0.09
0.09
0.25
0.27
0.12
-0.15
-0.43
-0.61
-0.64
-0.54
-0.40
-0.33
-0.40
-0.61
-0.92
-1.23
-1.45
-1.51
-1.40
-1.15
-0.83
-0.51
-0.27
-0.10
0.03
0.18
0.44
0.81
1.25
1.69
2.02
2.16
2.07
1.79
1.40
0.97
0.58
0.25
-0.03
-0.28
-0.51
-0.68
-0.76
-0.74
-0.65
-0.58
-0.62
-0.79
-1.08
-1.38
-1.55
-1.52
-1.28
-0.89
-0.46
-0.05
0.30
0.58
0.82
1.02
1.20
1.31
1.35
1.33
1.27
1.16
0.96
0.65
0.20
-0.32
-0.78
-1.03
-1.00
-0.70
-0.24
0.22
0.53
0.64
0.57
0.39
0.16
-0.03
-0.15
-0.18
-0.10
0.04
0.17
0.19
0.01
-0.37
-0.90
-1.44
-1.83
-1.96
-1.81
-1.45
-1.00
-0.59
-0.28
-0.07
0.10
0.26
0.39
0.47
0.46
0.41
0.39
0.47
0.70
0.99
1.23
1.29
1.10
0.74
0.32
-0.01
-0.19
-0.27
-0.32
-0.41
-0.56
-0.74
-0.88
-0.97
-1.01
-1.04
-1.05
-1.01
-0.86
-0.56
-0.15
0.28
0.62
0.82
0.90
0.90
0.87
0.81
0.70
0.50
0.26
0.04
-0.07
-0.02
0.15
0.35
0.49
0.52
0.45
0.35
0.30
0.32
0.38
0.45
0.50
0.51
0.51
0.51
0.49
0.44
0.29
0.04
-0.28
-0.57
-0.75
-0.76
-0.63
-0.43
-0.27
-0.23
-0.30
-0.42
-0.48
-0.46
-0.36
-0.27
-0.24
-0.26
-0.26
-0.17
0.02
0.26
0.46
0.53
0.46
0.31
0.15
0.03
-0.03
-0.08
-0.12
-0.16
-0.16
-0.10
-0.01
0.05
0.03
-0.11
-0.35
-0.62
-0.84
-0.91
-0.79
-0.47
-0.02
0.45
0.78
0.85
0.63
0.19
-0.28
-0.60
-0.64
-0.43
-0.07
0.30
0.59
0.77
0.88
0.94
0.93
0.80
0.52
0.15
-0.25
-0.56
-0.73
-0.74
-0.60
-0.33
0.04
0.47
0.85
1.06
1.01
0.67
0.17
-0.33
-0.66
-0.76
-0.72
-0.66
-0.68
-0.78
-0.84
-0.75
-0.46
-0.03
0.37
0.59
0.58
0.35
0.02
-0.31
-0.58
-0.78
-0.95
-1.09
-1.16
-1.08
-0.83
-0.42
0.05
0.45
0.68
0.71
0.61
0.47
0.40
0.41
0.45
0.44
0.31
0.07
-0.20
-0.40
-0.46
-0.37
-0.20
0.00
0.19
0.33
0.43
0.47
0.45
0.38
0.32
0.33
0.45
0.65
0.85
0.95
0.91
0.73
0.49
0.27
0.11
-0.01
-0.11
-0.17
-0.17
-0.06
0.16
0.39
0.53
0.47
0.21
-0.17
-0.51
-0.70
-0.70
-0.60
-0.50
-0.48
-0.52
-0.53
-0.42
-0.16
0.16
0.42
0.50
0.39
0.18
-0.01
-0.12
-0.15
-0.18
-0.25
-0.38
-0.51
-0.54
-0.45
-0.26
-0.07
0.04
0.00
-0.15
-0.34
-0.50
-0.56
-0.51
-0.36
-0.12
0.16
0.42
0.57
0.56
0.37
0.06
-0.23
-0.37
-0.29
-0.01
0.34
0.59
0.65
0.50
0.25
0.05
-0.02
0.06
0.22
0.36
0.44
0.45
0.47
0.53
0.65
0.72
0.67
0.45
0.11
-0.21
-0.41
-0.42
-0.30
-0.15
-0.09
-0.16
-0.33
-0.50
-0.57
-0.49
-0.29
-0.04
0.16
0.23
0.16
-0.00
-0.17
-0.25
-0.23
-0.13
-0.05
-0.05
-0.11
-0.19
-0.22
-0.16
-0.06
0.01
-0.02
-0.16
-0.35
-0.50
-0.56
-0.54
-0.45
-0.30
-0.10
0.16
0.42
0.61
0.68
0.61
0.43
0.21
0.01
-0.15
-0.27
-0.35
-0.38
-0.30
-0.09
0.22
0.56
0.79
0.83
0.66
0.34
-0.03
-0.30
-0.42
-0.38
-0.26
-0.16
-0.18
-0.33
-0.53
-0.68
-0.67
-0.45
-0.08
0.35
0.69
0.85
0.79
0.56
0.26
0.00
-0.10
-0.02
0.21
0.45
0.59
0.53
0.29
-0.06
-0.37
-0.55
-0.55
-0.39
-0.13
0.15
0.38
0.54
0.62
0.64
0.62
0.59
0.54
0.45
0.32
0.16
-0.00
-0.11
-0.11
0.01
0.25
0.53
0.75
0.82
0.68
0.35
-0.09
-0.48
-0.71
-0.73
-0.57
-0.36
-0.18
-0.09
-0.09
-0.13
-0.15
-0.11
-0.02
0.13
0.29
0.42
0.46
0.34
0.03
-0.44
-0.96
-1.41
-1.65
-1.63
-1.37
-0.97
-0.54
-0.16
0.12
0.32
0.47
0.56
0.58
0.45
0.18
-0.21
-0.60
-0.87
-0.94
-0.81
-0.55
-0.27
-0.07
0.03
0.08
0.10
0.14
0.21
0.28
0.32
0.29
0.19
0.02
-0.19
-0.36
-0.45
-0.40
-0.21
0.07
0.39
0.66
0.81
0.83
0.76
0.65
0.57
0.53
0.53
0.51
0.42
0.25
0.04
-0.15
-0.26
-0.28
-0.23
-0.17
-0.13
-0.11
-0.11
-0.11
-0.09
-0.07
-0.03
-0.00
0.00
-0.04
-0.13
-0.26
-0.40
-0.52
-0.63
-0.73
-0.83
-0.91
-0.91
-0.80
-0.59
-0.33
-0.10
0.03
0.08
0.11
0.14
0.17
0.16
0.05
-0.16
-0.42
-0.63
-0.73
-0.67
-0.45
-0.11
0.32
0.76
1.12
1.30
1.27
1.04
0.73
0.45
0.28
0.22
0.22
0.21
0.18
0.17
0.24
0.45
0.78
1.11
1.31
1.24
0.89
0.36
-0.18
-0.52
-0.58
-0.41
-0.16
0.03
0.07
0.01
-0.05
-0.03
0.05
0.11
0.05
-0.14
-0.37
-0.54
-0.58
-0.53
-0.52
-0.63
-0.81
-0.91
-0.78
-0.36
0.23
0.76
1.00
0.90
0.57
0.21
-0.00
-0.03
0.03
0.06
-0.03
-0.23
-0.47
-0.66
-0.72
-0.66
-0.50
-0.30
-0.09
0.11
0.29
0.44
0.55
0.61
0.58
0.44
0.21
-0.06
-0.27
-0.33
-0.23
-0.03
0.18
0.27
0.20
0.01
-0.22
-0.37
-0.39
-0.27
-0.10
0.04
0.08
0.03
-0.03
-0.02
0.09
0.29
0.46
0.50
0.36
0.12
-0.09
-0.13
0.05
0.37
0.66
0.77
0.65
0.38
0.10
-0.11
-0.21
-0.28
-0.39
-0.58
-0.77
-0.88
-0.86
-0.72
-0.57
-0.47
-0.44
-0.41
-0.32
-0.17
0.03
0.20
0.28
0.29
0.25
0.22
0.20
0.19
0.15
0.10
0.07
0.07
0.13
0.20
0.27
0.31
0.35
0.40
0.47
0.51
0.46
0.27
-0.05
-0.41
-0.70
-0.82
-0.74
-0.47
-0.08
0.37
0.78
1.07
1.14
0.96
0.56
0.07
-0.39
-0.68
-0.78
-0.74
-0.64
-0.54
-0.41
-0.22
0.02
0.28
0.43
0.40
0.17
-0.17
-0.50
-0.69
-0.69
-0.55
-0.32
-0.11
0.05
0.12
0.12
0.06
-0.02
-0.06
-0.05
0.05
0.24
0.47
0.69
0.84
0.90
0.89
0.85
0.81
0.81
0.86
0.91
0.92
0.82
0.59
0.23
-0.21
-0.65
-1.02
-1.26
-1.35
-1.30
-1.16
-0.97
-0.80
-0.68
-0.63
-0.64
-0.69
-0.74
-0.74
-0.66
-0.52
-0.33
-0.13
0.03
0.13
0.15
0.13
0.12
0.19
0.34
0.53
0.68
0.67
0.48
0.13
-0.26
-0.55
-0.66
-0.59
-0.43
-0.26
-0.14
-0.04
0.06
0.22
0.41
0.59
0.69
0.71
0.68
0.66
0.68
0.71
0.68
0.54
0.28
-0.02
-0.26
-0.38
-0.37
-0.28
-0.18
-0.12
-0.12
-0.15
-0.17
-0.13
-0.02
0.11
0.21
0.24
0.18
0.06
-0.06
-0.10
-0.05
0.07
0.19
0.24
0.21
0.13
0.04
-0.01
-0.00
0.02
0.04
0.04
0.02
-0.00
-0.02
-0.05
-0.12
-0.23
-0.37
-0.48
-0.51
-0.45
-0.37
-0.31
-0.29
-0.31
-0.27
-0.12
0.18
0.57
0.97
1.28
1.47
1.54
1.54
1.49
1.40
1.24
0.97
0.59
0.13
-0.32
-0.66
-0.82
-0.83
-0.76
-0.72
-0.78
-0.88
-0.94
-0.85
-0.59
-0.25
0.02
0.09
-0.12
-0.57
-1.14
-1.70
-2.13
-2.37
-2.36
-2.09
-1.57
-0.91
-0.21
0.39
0.83
1.09
1.20
1.20
1.11
0.99
0.87
0.83
0.91
1.10
1.33
1.48
1.46
1.25
0.92
0.56
0.26
0.04
-0.16
-0.37
-0.58
-0.72
-0.73
-0.60
-0.42
-0.29
-0.31
-0.46
-0.65
-0.76
-0.71
-0.53
-0.30
-0.14
-0.08
-0.09
-0.08
0.05
0.27
0.52
0.69
0.71
0.60
0.41
0.21
0.06
-0.05
-0.13
-0.20
-0.26
-0.32
-0.33
-0.27
-0.13
0.08
0.32
0.53
0.66
0.68
0.60
0.46
0.30
0.12
-0.07
-0.25
-0.39
-0.42
-0.31
-0.11
0.07
0.13
-0.02
-0.32
-0.68
-0.97
-1.11
-1.12
-1.06
-0.99
-0.90
-0.75
-0.48
-0.07
0.41
0.87
1.19
1.32
1.29
1.17
1.01
0.84
0.67
0.48
0.28
0.09
-0.06
-0.12
-0.13
-0.09
-0.04
-0.03
-0.04
-0.08
-0.14
-0.22
-0.34
-0.50
-0.68
-0.83
-0.89
-0.80
-0.58
-0.31
-0.06
0.13
0.27
0.42
0.60
0.78
0.88
0.82
0.59
0.28
0.01
-0.14
-0.17
-0.12
-0.06
-0.01
0.06
0.18
0.39
0.65
0.89
1.03
1.03
0.88
0.62
0.32
0.05
-0.12
-0.19
-0.20
-0.24
-0.36
-0.60
-0.89
-1.09
-1.08
-0.85
-0.44
0.02
0.37
0.57
0.63
0.61
0.57
0.52
0.43
0.26
-0.00
-0.29
-0.52
-0.67
-0.74
-0.81
-0.92
-1.06
-1.15
-1.14
-1.01
-0.82
-0.69
-0.65
-0.70
-0.73
-0.65
-0.43
-0.14
0.10
0.22
0.27
0.35
0.57
0.93
1.32
1.58
1.58
1.30
0.86
0.41
0.10
-0.01
0.04
0.20
0.40
0.56
0.63
0.55
0.32
-0.02
-0.36
-0.58
-0.61
-0.48
-0.28
-0.15
-0.11
-0.11
-0.02
0.25
0.68
1.16
1.49
1.53
1.24
0.69
0.01
-0.62
-1.11
-1.40
-1.51
-1.49
-1.39
-1.26
-1.13
-1.02
-0.94
-0.87
-0.78
-0.63
-0.37
0.02
0.49
0.93
1.22
1.26
1.03
0.64
0.21
-0.13
-0.34
-0.43
-0.44
-0.40
-0.31
-0.17
-0.00
0.13
0.18
0.11
-0.03
-0.17
-0.22
-0.13
0.08
0.33
0.50
0.55
0.45
0.25
0.04
-0.12
-0.18
-0.12
0.01
0.18
0.33
0.43
0.46
0.42
0.28
0.07
-0.18
-0.43
-0.61
-0.67
-0.59
-0.36
-0.02
0.38
0.76
1.02
1.08
0.91
0.54
0.06
-0.41
-0.75
-0.89
-0.79
-0.50
-0.15
0.15
0.32
0.34
0.23
0.09
-0.02
-0.05
-0.01
0.07
0.16
0.23
0.28
0.33
0.38
0.40
0.40
0.37
0.30
0.22
0.14
0.08
0.03
-0.02
-0.09
-0.18
-0.23
-0.21
-0.05
0.22
0.49
0.61
0.46
0.03
-0.56
-1.06
-1.28
-1.14
-0.75
-0.28
0.06
0.23
0.27
0.31
0.39
0.50
0.52
0.39
0.12
-0.17
-0.31
-0.21
0.09
0.47
0.76
0.89
0.88
0.83
0.80
0.81
0.80
0.71
0.47
0.12
-0.30
-0.68
-0.95
-1.08
-1.05
-0.87
-0.60
-0.30
-0.04
0.10
0.11
-0.01
-0.20
-0.37
-0.49
-0.55
-0.57
-0.61
-0.70
-0.84
-0.99
-1.08
-1.03
-0.82
-0.48
-0.07
0.29
0.53
0.60
0.51
0.30
0.05
-0.15
-0.24
-0.21
-0.09
0.07
0.21
0.28
0.29
0.25
0.20
0.15
0.13
0.12
0.11
0.08
0.04
0.00
-0.01
0.02
0.08
0.14
0.17
0.16
0.10
0.01
-0.11
-0.24
-0.36
-0.42
-0.37
-0.19
0.07
0.33
0.47
0.44
0.26
0.05
-0.10
-0.13
-0.06
0.07
0.21
0.32
0.40
0.46
0.51
0.57
0.63
0.68
0.68
0.59
0.38
0.08
-0.23
-0.46
-0.51
-0.39
-0.15
0.12
0.34
0.45
0.47
0.40
0.21
-0.08
-0.47
-0.88
-1.22
-1.36
-1.23
-0.85
-0.32
0.21
0.61
0.78
0.71
0.44
0.05
-0.36
-0.70
-0.88
-0.87
-0.67
-0.33
0.02
0.31
0.45
0.45
0.34
0.19
0.04
-0.08
-0.16
-0.20
-0.18
-0.08
0.06
0.20
0.30
0.34
0.34
0.35
0.39
0.41
0.33
0.04
-0.43
-0.99
-1.40
-1.47
-1.12
-0.46
0.28
0.85
1.13
1.13
1.00
0.88
0.87
0.93
0.98
0.90
0.66
0.29
-0.10
-0.40
-0.52
-0.46
-0.30
-0.17
-0.18
-0.33
-0.55
-0.70
-0.66
-0.38
0.03
0.40
0.55
0.40
0.01
-0.47
-0.84
-0.96
-0.79
-0.39
0.07
0.42
0.54
0.40
0.10
-0.22
-0.40
-0.37
-0.15
0.17
0.45
0.60
0.58
0.41
0.15
-0.10
-0.31
-0.47
-0.57
-0.61
-0.57
-0.41
-0.11
0.26
0.60
0.78
0.73
0.51
0.25
0.09
0.09
0.20
0.28
0.23
0.04
-0.19
-0.33
-0.28
-0.08
0.15
0.26
0.22
0.07
-0.08
-0.11
-0.01
0.16
0.28
0.28
0.12
-0.14
-0.37
-0.50
-0.47
-0.32
-0.17
-0.08
-0.08
-0.11
-0.07
0.08
0.34
0.59
0.72
0.67
0.49
0.30
0.21
0.29
0.48
0.68
0.78
0.71
0.49
0.18
-0.12
-0.34
-0.42
-0.36
-0.21
-0.04
0.06
0.08
0.01
-0.08
-0.18
-0.29
-0.46
-0.72
-1.05
-1.35
-1.49
-1.39
-1.04
-0.55
-0.07
0.26
0.40
0.36
0.25
0.14
0.10
0.14
0.22
0.30
0.33
0.29
0.15
-0.06
-0.28
-0.44
-0.48
-0.39
-0.18
0.09
0.33
0.50
0.54
0.45
0.26
0.02
-0.21
-0.37
-0.41
-0.30
-0.08
0.19
0.45
0.61
0.64
0.53
0.35
0.21
0.21
0.35
0.59
0.80
0.86
0.72
0.41
0.02
-0.33
-0.58
-0.68
-0.67
-0.56
-0.39
-0.20
-0.01
0.10
0.10
-0.03
-0.26
-0.51
-0.68
-0.72
-0.65
-0.54
-0.47
-0.48
-0.55
-0.59
-0.55
-0.40
-0.20
0.00
0.17
0.27
0.31
0.28
0.17
-0.06
-0.37
-0.69
-0.93
-1.00
-0.84
-0.50
-0.08
0.30
0.56
0.67
0.65
0.57
0.49
0.46
0.47
0.49
0.48
0.41
0.30
0.19
0.13
0.16
0.29
0.50
0.73
0.92
0.99
0.93
0.75
0.55
0.42
0.41
0.58
0.89
1.25
1.62
1.96
2.22
2.29
1.98
1.11
-0.33
-2.07
-3.64
-4.52
-4.44
-3.51
-2.17
-0.96
-0.24
-0.05
-0.14
-0.19
-0.03
0.31
0.62
0.71
0.55
0.24
-0.04
-0.16
-0.13
-0.04
-0.05
-0.20
-0.45
-0.65
-0.69
-0.54
-0.27
0.01
0.20
0.27
0.24
0.17
0.09
-0.02
-0.11
-0.15
-0.05
0.19
0.54
0.90
1.13
1.17
1.02
0.76
0.49
0.27
0.11
-0.01
-0.12
-0.22
-0.28
-0.29
-0.23
-0.11
0.02
0.15
0.29
0.45
0.69
0.99
1.26
1.41
1.34
1.05
0.62
0.23
0.01
0.00
0.19
0.52
0.93
1.33
1.57
1.41
0.69
-0.54
-2.01
-3.22
-3.73
-3.36
-2.27
-0.91
0.27
1.00
1.27
1.27
1.20
1.11
0.97
0.72
0.33
-0.11
-0.48
-0.73
-0.88
-0.98
-1.15
-1.44
-1.84
-2.24
-2.48
-2.47
-2.16
-1.65
-1.07
-0.57
-0.20
0.05
0.26
0.47
0.66
0.81
0.89
0.90
0.85
0.78
0.68
0.55
0.38
0.19
0.06
0.07
0.23
0.49
0.73
0.82
0.68
0.31
-0.16
-0.58
-0.77
-0.66
-0.25
0.36
0.99
1.47
1.70
1.59
1.20
0.64
0.09
-0.28
-0.33
-0.05
0.50
1.21
1.94
2.50
2.68
2.20
0.90
-1.11
-3.35
-5.10
-5.71
-4.95
-3.14
-1.01
0.66
1.43
1.37
0.89
0.48
0.39
0.53
0.71
0.74
0.61
0.42
0.27
0.15
0.01
-0.23
-0.57
-0.91
-1.13
-1.13
-0.87
-0.43
0.08
0.52
0.77
0.82
0.70
0.46
0.21
0.01
-0.13
-0.22
-0.25
-0.23
-0.14
0.03
0.25
0.47
0.64
0.73
0.76
0.74
0.65
0.50
0.28
0.03
-0.18
-0.30
-0.30
-0.25
-0.21
-0.23
-0.27
-0.25
-0.09
0.16
0.40
0.47
0.32
0.01
-0.26
-0.35
-0.14
0.29
0.78
1.20
1.47
1.61
1.63
1.48
1.06
0.32
-0.67
-1.66
-2.33
-2.49
-2.13
-1.46
-0.79
-0.34
-0.14
-0.10
-0.04
0.11
0.30
0.44
0.41
0.20
-0.10
-0.39
-0.59
-0.65
-0.59
-0.47
-0.34
-0.25
-0.20
-0.18
-0.15
-0.08
0.05
0.20
0.32
0.35
0.25
0.04
-0.22
-0.44
-0.55
-0.52
-0.36
-0.15
0.01
0.05
-0.02
-0.14
-0.20
-0.09
0.21
0.61
0.99
1.20
1.17
0.94
0.61
0.32
0.15
0.12
0.18
0.28
0.38
0.49
0.60
0.66
0.61
0.43
0.11
-0.24
-0.52
-0.65
-0.62
-0.48
-0.33
-0.22
-0.14
-0.06
0.04
0.16
0.25
0.26
0.15
-0.11
-0.51
-1.01
-1.50
-1.87
-1.99
-1.79
-1.30
-0.63
0.04
0.56
0.87
0.97
0.95
0.85
0.72
0.56
0.40
0.28
0.26
0.40
0.65
0.93
1.10
1.06
0.80
0.40
0.01
-0.25
-0.32
-0.22
-0.04
0.11
0.15
0.04
-0.18
-0.46
-0.70
-0.83
-0.81
-0.65
-0.42
-0.16
0.06
0.23
0.33
0.38
0.38
0.31
0.20
0.07
-0.06
-0.13
-0.16
-0.14
-0.08
0.00
0.13
0.31
0.50
0.62
0.63
0.50
0.29
0.09
-0.04
-0.09
-0.13
-0.22
-0.39
-0.56
-0.61
-0.46
-0.10
0.34
0.71
0.85
0.72
0.39
0.02
-0.27
-0.40
-0.40
-0.36
-0.36
-0.43
-0.53
-0.57
-0.49
-0.25
0.08
0.40
0.61
0.65
0.53
0.30
0.05
-0.15
-0.28
-0.33
-0.32
-0.26
-0.16
-0.04
0.10
0.20
0.22
0.14
-0.01
-0.15
-0.15
0.03
0.35
0.67
0.81
0.66
0.25
-0.29
-0.72
-0.89
-0.78
-0.47
-0.16
0.01
0.03
-0.05
-0.10
-0.03
0.14
0.31
0.35
0.22
-0.05
-0.31
-0.41
-0.29
0.03
0.39
0.66
0.74
0.67
0.53
0.43
0.41
0.45
0.47
0.40
0.23
-0.01
-0.23
-0.35
-0.32
-0.20
-0.07
-0.04
-0.16
-0.39
-0.63
-0.76
-0.73
-0.56
-0.38
-0.30
-0.37
-0.54
-0.66
-0.63
-0.38
-0.00
0.34
0.53
0.49
0.27
-0.02
-0.31
-0.53
-0.73
-0.90
-1.05
-1.11
-1.04
-0.80
-0.45
-0.07
0.21
0.35
0.33
0.22
0.07
-0.07
-0.19
-0.31
-0.43
-0.49
-0.44
-0.24
0.14
0.60
1.04
1.34
1.44
1.35
1.16
0.97
0.83
0.79
0.85
0.96
1.07
1.13
1.08
0.93
0.70
0.48
0.35
0.35
0.44
0.54
0.52
0.32
-0.00
-0.34
-0.58
-0.63
-0.51
-0.34
-0.19
-0.13
-0.13
-0.10
0.02
0.22
0.44
0.59
0.61
0.52
0.38
0.23
0.02
-0.35
-0.95
-1.72
-2.50
-3.05
-3.20
-2.93
-2.38
-1.73
-1.13
-0.63
-0.20
0.16
0.41
0.51
0.42
0.22
0.04
0.01
0.14
0.35
0.49
0.46
0.25
-0.06
-0.35
-0.52
-0.54
-0.43
-0.23
0.04
0.33
0.64
0.90
1.08
1.14
1.09
0.96
0.83
0.74
0.73
0.76
0.79
0.75
0.60
0.35
0.03
-0.30
-0.61
-0.86
-1.01
-1.03
-0.87
-0.51
0.00
0.55
1.00
1.19
1.07
0.71
0.27
-0.08
-0.21
-0.14
0.03
0.16
0.22
0.23
0.26
0.35
0.47
0.54
0.49
0.31
0.08
-0.12
-0.23
-0.26
-0.25
-0.25
-0.26
-0.26
-0.22
-0.15
-0.06
-0.01
-0.01
-0.08
-0.17
-0.24
-0.24
-0.14
0.02
0.16
0.22
0.13
-0.10
-0.38
-0.58
-0.56
-0.30
0.14
0.57
0.82
0.79
0.48
0.07
-0.26
-0.38
-0.26
-0.01
0.22
0.32
0.26
0.09
-0.10
-0.26
-0.36
-0.39
-0.35
-0.25
-0.09
0.10
0.25
0.32
0.27
0.13
-0.05
-0.21
-0.33
-0.39
-0.41
-0.39
-0.29
-0.08
0.25
0.64
1.01
1.24
1.22
0.95
0.47
-0.08
-0.56
-0.88
-1.04
-1.08
-1.05
-1.01
-0.98
-0.91
-0.80
-0.65
-0.49
-0.37
-0.34
-0.38
-0.44
-0.46
-0.38
-0.21
0.03
0.25
0.39
0.39
0.26
0.05
-0.14
-0.22
-0.10
0.23
0.65
1.02
1.19
1.07
0.75
0.40
0.21
0.26
0.51
0.77
0.88
0.76
0.48
0.16
-0.09
-0.22
-0.29
-0.36
-0.45
-0.50
-0.44
-0.26
-0.03
0.11
0.06
-0.15
-0.45
-0.67
-0.72
-0.63
-0.49
-0.40
-0.41
-0.42
-0.36
-0.15
0.17
0.48
0.64
0.60
0.41
0.18
0.03
-0.00
0.04
0.08
0.07
0.02
-0.00
0.04
0.14
0.22
0.21
0.05
-0.21
-0.44
-0.53
-0.42
-0.14
0.19
0.46
0.60
0.62
0.59
0.55
0.50
0.40
0.22
-0.01
-0.23
-0.36
-0.38
-0.34
-0.33
-0.40
-0.55
-0.70
-0.75
-0.65
-0.42
-0.14
0.09
0.21
0.20
0.08
-0.08
-0.22
-0.29
-0.27
-0.18
-0.08
-0.01
0.03
0.07
0.15
0.26
0.38
0.45
0.44
0.40
0.37
0.40
0.49
0.56
0.57
0.49
0.36
0.24
0.16
0.10
0.01
-0.12
-0.25
-0.29
-0.16
0.14
0.52
0.84
0.98
0.93
0.75
0.58
0.51
0.55
0.62
0.62
0.49
0.23
-0.06
-0.31
-0.49
-0.62
-0.76
-0.94
-1.13
-1.24
-1.19
-0.94
-0.55
-0.12
0.21
0.36
0.32
0.12
-0.18
-0.51
-0.81
-1.02
-1.10
-1.03
-0.84
-0.61
-0.39
-0.24
-0.13
-0.03
0.13
0.33
0.55
0.70
0.73
0.63
0.44
0.23
0.09
0.04
0.09
0.22
0.35
0.41
0.31
0.03
-0.36
-0.70
-0.81
-0.52
0.17
1.09
1.96
2.51
2.53
2.04
1.21
0.34
-0.26
-0.37
0.03
0.78
1.57
2.09
2.11
1.71
1.01
0.36
0.01
0.07
0.57
1.48
2.66
3.75
4.11
2.98
0.02
-4.38
-8.96
-12.10
-12.60
-10.32
-6.30
-2.20
0.58
1.55
1.24
0.64
0.52
1.01
1.66
1.89
1.42
0.47
-0.46
-0.90
-0.73
-0.02
0.77
1.25
1.22
0.72
0.04
-0.48
-0.57
-0.19
0.49
1.17
1.60
1.64
1.36
0.92
0.51
0.26
0.20
0.30
0.44
0.56
0.60
0.58
0.52
0.47
0.43
0.43
0.46
0.50
0.54
0.52
0.37
0.09
-0.31
-0.70
-0.95
-0.95
-0.70
-0.30
0.12
0.41
0.53
0.48
0.38
0.28
0.24
0.22
0.19
0.19
0.32
0.70
1.29
1.85
1.98
1.37
0.02
-1.68
-3.08
-3.64
-3.17
-1.99
-0.67
0.24
0.56
0.48
0.34
0.41
0.68
0.94
0.95
0.67
0.24
-0.11
-0.23
-0.14
0.03
0.04
-0.22
-0.68
-1.18
-1.52
-1.57
-1.36
-0.98
-0.58
-0.26
-0.05
0.05
0.07
0.05
0.00
-0.04
-0.05
-0.01
0.05
0.11
0.15
0.14
0.13
0.16
0.26
0.41
0.57
0.67
0.65
0.53
0.33
0.12
-0.09
-0.27
-0.42
-0.52
-0.52
-0.40
-0.13
0.27
0.72
1.11
1.37
1.44
1.35
1.17
0.96
0.80
0.71
0.67
0.66
0.67
0.70
0.77
0.83
0.80
0.56
0.02
-0.77
-1.61
-2.26
-2.52
-2.35
-1.89
-1.32
-0.83
-0.44
-0.13
0.19
0.49
0.70
0.70
0.45
0.05
-0.33
-0.53
-0.44
-0.13
0.29
0.66
0.85
0.82
0.61
0.32
0.06
-0.09
-0.12
-0.07
-0.00
0.02
-0.02
-0.06
-0.04
0.05
0.20
0.32
0.38
0.36
0.33
0.34
0.40
0.44
0.39
0.18
-0.15
-0.49
-0.70
-0.70
-0.51
-0.25
-0.03
0.06
0.06
0.03
0.05
0.13
0.24
0.29
0.25
0.12
-0.04
-0.17
-0.24
-0.28
-0.32
-0.40
-0.52
-0.61
-0.66
-0.67
-0.68
-0.72
-0.79
-0.80
-0.66
-0.33
0.13
0.58
0.86
0.86
0.60
0.20
-0.19
-0.43
-0.47
-0.33
-0.07
0.23
0.48
0.64
0.68
0.62
0.52
0.42
0.36
0.35
0.37
0.38
0.39
0.39
0.40
0.41
0.40
0.34
0.19
-0.00
-0.18
-0.28
-0.29
-0.24
-0.18
-0.14
-0.12
-0.09
-0.02
0.04
0.05
-0.02
-0.17
-0.33
-0.44
-0.47
-0.43
-0.36
-0.30
-0.26
-0.24
-0.25
-0.29
-0.36
-0.42
-0.40
-0.27
-0.04
0.23
0.48
0.66
0.77
0.80
0.76
0.61
0.33
-0.01
-0.34
-0.51
-0.46
-0.25
0.00
0.16
0.17
0.06
-0.03
-0.04
0.06
0.20
0.30
0.30
0.22
0.10
-0.03
-0.14
-0.25
-0.35
-0.46
-0.54
-0.56
-0.50
-0.33
-0.09
0.16
0.31
0.27
-0.00
-0.47
-0.96
-1.28
-1.26
-0.85
-0.18
0.51
0.95
1.00
0.69
0.19
-0.26
-0.48
-0.43
-0.19
0.08
0.24
0.26
0.19
0.13
0.15
0.24
0.32
0.32
0.22
0.09
0.05
0.17
0.45
0.80
1.08
1.18
1.09
0.84
0.56
0.34
0.25
0.27
0.35
0.43
0.44
0.38
0.24
0.08
-0.05
-0.15
-0.22
-0.30
-0.40
-0.55
-0.71
-0.86
-0.99
-1.10
-1.20
-1.30
-1.35
-1.30
-1.11
-0.78
-0.37
0.03
0.33
0.50
0.56
0.56
0.54
0.50
0.42
0.28
0.09
-0.11
-0.25
-0.32
-0.31
-0.29
-0.28
-0.29
-0.26
-0.16
0.01
0.20
0.35
0.42
0.39
0.31
0.22
0.12
0.03
-0.07
-0.15
-0.19
-0.16
-0.04
0.14
0.35
0.51
0.58
0.53
0.38
0.17
-0.03
-0.15
-0.17
-0.11
-0.02
0.07
0.13
0.20
0.28
0.36
0.36
0.25
0.03
-0.20
-0.30
-0.18
0.13
0.51
0.79
0.88
0.78
0.62
0.51
0.52
0.61
0.66
0.53
0.19
-0.29
-0.78
-1.13
-1.25
-1.14
-0.88
-0.56
-0.27
-0.04
0.09
0.08
-0.08
-0.41
-0.85
-1.30
-1.63
-1.73
-1.59
-1.26
-0.87
-0.52
-0.25
-0.05
0.10
0.20
0.24
0.21
0.11
0.01
-0.02
0.05
0.23
0.44
0.61
0.72
0.76
0.80
0.85
0.96
1.10
1.25
1.38
1.43
1.34
1.09
0.71
0.29
-0.06
-0.24
-0.27
-0.19
-0.11
-0.08
-0.08
-0.04
0.05
0.16
0.17
0.03
-0.23
-0.45
-0.48
-0.27
0.08
0.41
0.52
0.37
0.04
-0.29
-0.48
-0.48
-0.33
-0.12
0.05
0.16
0.21
0.23
0.21
0.16
0.06
-0.08
-0.20
-0.26
-0.24
-0.15
-0.04
-0.00
-0.06
-0.19
-0.32
-0.39
-0.35
-0.23
-0.06
0.10
0.24
0.35
0.40
0.36
0.19
-0.09
-0.38
-0.58
-0.58
-0.42
-0.18
-0.01
-0.02
-0.17
-0.36
-0.46
-0.41
-0.24
-0.02
0.17
0.31
0.42
0.56
0.71
0.84
0.86
0.73
0.48
0.16
-0.14
-0.37
-0.49
-0.52
-0.48
-0.45
-0.46
-0.57
-0.74
-0.94
-1.08
-1.09
-0.97
-0.76
-0.53
-0.34
-0.19
-0.03
0.19
0.47
0.74
0.87
0.79
0.54
0.21
-0.08
-0.24
-0.25
-0.16
-0.02
0.13
0.27
0.39
0.46
0.45
0.38
0.27
0.20
0.19
0.23
0.28
0.29
0.25
0.20
0.18
0.22
0.31
0.41
0.47
0.43
0.26
-0.04
-0.40
-0.72
-0.88
-0.79
-0.49
-0.12
0.15
0.18
-0.03
-0.36
-0.62
-0.70
-0.56
-0.27
0.07
0.37
0.59
0.72
0.76
0.71
0.57
0.35
0.07
-0.21
-0.43
-0.54
-0.49
-0.31
-0.04
0.22
0.37
0.39
0.31
0.24
0.26
0.39
0.54
0.63
0.59
0.41
0.19
-0.01
-0.12
-0.16
-0.14
-0.09
0.01
0.15
0.30
0.37
0.27
-0.01
-0.40
-0.76
-0.94
-0.88
-0.63
-0.35
-0.16
-0.13
-0.24
-0.39
-0.50
-0.51
-0.44
-0.32
-0.19
-0.05
0.09
0.25
0.41
0.53
0.57
0.50
0.32
0.06
-0.24
-0.51
-0.72
-0.82
-0.79
-0.64
-0.41
-0.14
0.06
0.14
0.06
-0.14
-0.35
-0.49
-0.48
-0.33
-0.09
0.14
0.30
0.34
0.29
0.19
0.13
0.18
0.35
0.59
0.80
0.90
0.83
0.64
0.42
0.27
0.21
0.22
0.24
0.25
0.28
0.36
0.50
0.64
0.64
0.44
0.04
-0.42
-0.76
-0.84
-0.65
-0.32
-0.02
0.10
-0.01
-0.26
-0.54
-0.73
-0.78
-0.73
-0.65
-0.60
-0.62
-0.67
-0.66
-0.52
-0.23
0.16
0.56
0.88
1.05
1.05
0.89
0.61
0.26
-0.10
-0.38
-0.52
-0.48
-0.30
-0.02
0.27
0.50
0.63
0.61
0.45
0.15
-0.20
-0.51
-0.66
-0.59
-0.33
0.02
0.33
0.49
0.47
0.30
0.03
-0.30
-0.62
-0.87
-0.97
-0.86
-0.54
-0.08
0.36
0.63
0.63
0.40
0.03
-0.32
-0.52
-0.46
-0.13
0.40
0.97
1.37
1.46
1.19
0.72
0.26
-0.01
-0.01
0.18
0.41
0.57
0.65
0.69
0.73
0.75
0.69
0.50
0.20
-0.16
-0.48
-0.72
-0.85
-0.88
-0.81
-0.65
-0.43
-0.21
-0.06
-0.05
-0.14
-0.29
-0.43
-0.53
-0.59
-0.62
-0.61
-0.54
-0.41
-0.23
-0.06
0.02
-0.00
-0.13
-0.31
-0.48
-0.62
-0.70
-0.71
-0.64
-0.50
-0.32
-0.16
-0.06
0.00
0.06
0.16
0.33
0.52
0.63
0.60
0.40
0.13
-0.07
-0.09
0.13
0.53
0.95
1.23
1.29
1.10
0.75
0.38
0.08
-0.10
-0.19
-0.22
-0.25
-0.29
-0.33
-0.36
-0.30
-0.15
0.11
0.45
0.81
1.15
1.45
1.73
1.94
1.97
1.60
0.73
-0.56
-1.94
-2.92
-3.12
-2.51
-1.40
-0.33
0.26
0.28
-0.01
-0.20
0.00
0.53
1.06
1.26
0.94
0.25
-0.48
-0.93
-0.98
-0.71
-0.42
-0.35
-0.59
-1.01
-1.38
-1.50
-1.28
-0.82
-0.31
0.08
0.26
0.27
0.22
0.20
0.27
0.39
0.52
0.62
0.70
0.79
0.92
1.09
1.23
1.28
1.19
1.03
0.88
0.81
0.81
0.80
0.63
0.21
-0.39
-0.98
-1.27
-1.11
-0.52
0.28
0.95
1.23
1.05
0.63
0.17
-0.00
0.18
0.63
1.25
2.03
3.02
4.07
4.68
4.09
1.74
-2.23
-6.78
-10.33
-11.51
-9.89
-6.26
-2.14
0.99
2.48
2.60
2.17
1.92
2.00
2.08
1.72
0.82
-0.29
-1.09
-1.22
-0.73
0.11
0.75
0.87
0.43
-0.32
-0.94
-1.11
-0.73
0.00
0.72
1.05
0.86
0.26
-0.44
-0.93
-1.05
-0.83
-0.45
-0.11
0.04
0.04
-0.03
-0.06
0.02
0.20
0.45
0.71
0.97
1.15
1.18
0.97
0.51
-0.13
-0.77
-1.25
-1.44
-1.34
-1.04
-0.65
-0.28
0.03
0.27
0.44
0.54
0.57
0.56
0.57
0.61
0.70
0.77
0.77
0.68
0.50
0.30
0.14
-0.00
-0.13
-0.28
-0.42
-0.49
-0.41
-0.15
0.24
0.66
0.97
1.06
0.91
0.56
0.13
-0.25
-0.49
-0.55
-0.47
-0.32
-0.20
-0.14
-0.14
-0.14
-0.09
0.04
0.21
0.33
0.32
0.16
-0.12
-0.39
-0.56
-0.55
-0.39
-0.20
-0.10
-0.15
-0.31
-0.45
-0.45
-0.23
0.14
0.54
0.79
0.83
0.71
0.54
0.45
0.46
0.52
0.51
0.39
0.22
0.09
0.10
0.27
0.49
0.65
0.67
0.56
0.38
0.20
0.03
-0.14
-0.34
-0.57
-0.77
-0.89
-0.85
-0.69
-0.44
-0.18
0.02
0.15
0.18
0.11
-0.05
-0.29
-0.57
-0.85
-1.04
-1.06
-0.89
-0.55
-0.13
0.24
0.44
0.45
0.31
0.14
0.05
0.10
0.27
0.50
0.68
0.77
0.78
0.75
0.71
0.68
0.64
0.53
0.33
0.06
-0.22
-0.44
-0.54
-0.53
-0.46
-0.40
-0.41
-0.48
-0.59
-0.67
-0.67
-0.56
-0.38
-0.19
-0.06
-0.03
-0.10
-0.23
-0.33
-0.35
-0.29
-0.17
-0.05
0.05
0.13
0.22
0.35
0.49
0.55
0.46
0.16
-0.27
-0.71
-0.97
-0.98
-0.74
-0.37
-0.00
0.27
0.42
0.48
0.49
0.45
0.33
0.15
-0.01
-0.06
0.06
0.32
0.65
0.90
0.99
0.89
0.65
0.34
0.05
-0.17
-0.29
-0.31
-0.26
-0.17
-0.08
-0.01
0.05
0.07
0.08
0.06
-0.02
-0.14
-0.28
-0.38
-0.38
-0.29
-0.13
0.03
0.15
0.22
0.27
0.34
0.49
0.70
0.93
1.08
1.06
0.83
0.43
-0.04
-0.42
-0.62
-0.59
-0.39
-0.16
-0.02
-0.07
-0.28
-0.58
-0.84
-0.96
-0.90
-0.73
-0.54
-0.40
-0.36
-0.37
-0.38
-0.35
-0.25
-0.15
-0.07
-0.06
-0.11
-0.18
-0.21
-0.17
-0.06
0.11
0.27
0.41
0.48
0.51
0.51
0.49
0.44
0.37
0.26
0.15
0.11
0.19
0.40
0.64
0.81
0.79
0.56
0.22
-0.10
-0.26
-0.25
-0.12
-0.01
-0.01
-0.13
-0.30
-0.41
-0.38
-0.22
0.02
0.21
0.27
0.18
-0.02
-0.27
-0.45
-0.51
-0.42
-0.24
-0.02
0.17
0.27
0.30
0.27
0.20
0.11
0.04
-0.02
-0.03
0.04
0.19
0.42
0.69
0.92
1.02
0.92
0.60
0.12
-0.39
-0.77
-0.91
-0.79
-0.47
-0.07
0.26
0.45
0.44
0.28
0.00
-0.28
-0.48
-0.52
-0.34
-0.00
0.39
0.71
0.84
0.74
0.41
-0.10
-0.71
-1.35
-1.92
-2.33
-2.47
-2.30
-1.87
-1.28
-0.69
-0.19
0.17
0.44
0.64
0.76
0.77
0.62
0.35
0.04
-0.18
-0.19
0.00
0.33
0.66
0.89
0.97
0.93
0.85
0.75
0.65
0.51
0.32
0.13
-0.00
-0.02
0.08
0.22
0.27
0.17
-0.07
-0.37
-0.61
-0.73
-0.74
-0.69
-0.60
-0.44
-0.19
0.18
0.59
0.92
1.05
0.98
0.80
0.65
0.63
0.71
0.74
0.58
0.16
-0.40
-0.88
-1.05
-0.83
-0.30
0.34
0.84
1.06
0.96
0.63
0.20
-0.21
-0.53
-0.72
-0.76
-0.65
-0.42
-0.11
0.22
0.47
0.62
0.64
0.57
0.48
0.38
0.29
0.18
0.02
-0.15
-0.30
-0.35
-0.29
-0.14
0.02
0.10
0.06
-0.08
-0.24
-0.36
-0.38
-0.35
-0.31
-0.35
-0.49
-0.70
-0.90
-1.02
-1.01
-0.87
-0.65
-0.39
-0.15
0.00
0.04
-0.02
-0.15
-0.28
-0.32
-0.23
-0.01
0.29
0.59
0.80
0.88
0.80
0.62
0.39
0.17
0.04
0.03
0.14
0.32
0.53
0.70
0.78
0.77
0.66
0.47
0.20
-0.10
-0.39
-0.61
-0.72
-0.67
-0.48
-0.22
0.05
0.23
0.30
0.26
0.14
0.00
-0.14
-0.28
-0.41
-0.52
-0.57
-0.54
-0.44
-0.30
-0.20
-0.19
-0.28
-0.40
-0.46
-0.41
-0.26
-0.10
0.00
0.02
0.01
0.08
0.27
0.55
0.79
0.87
0.74
0.47
0.20
0.06
0.07
0.11
0.08
-0.10
-0.35
-0.57
-0.62
-0.47
-0.23
-0.04
-0.01
-0.17
-0.43
-0.64
-0.71
-0.59
-0.35
-0.10
0.06
0.08
-0.00
-0.12
-0.18
-0.11
0.08
0.34
0.58
0.75
0.84
0.87
0.87
0.83
0.73
0.55
0.31
0.10
0.01
0.08
0.29
0.52
0.62
0.49
0.16
-0.25
-0.61
-0.78
-0.76
-0.62
-0.43
-0.23
-0.02
0.22
0.49
0.68
0.70
0.49
0.08
-0.37
-0.67
-0.69
-0.43
-0.03
0.32
0.46
0.36
0.08
-0.24
-0.48
-0.57
-0.52
-0.38
-0.21
-0.09
-0.07
-0.18
-0.38
-0.60
-0.72
-0.65
-0.37
0.03
0.38
0.55
0.47
0.20
-0.12
-0.36
-0.44
-0.35
-0.17
0.05
0.22
0.33
0.34
0.25
0.08
-0.13
-0.28
-0.31
-0.19
0.06
0.35
0.62
0.82
0.93
0.95
0.90
0.81
0.68
0.54
0.42
0.35
0.36
0.44
0.57
0.70
0.79
0.80
0.71
0.52
0.24
-0.08
-0.42
-0.71
-0.91
-1.02
-1.03
-0.97
-0.89
-0.81
-0.74
-0.69
-0.67
-0.67
-0.72
-0.80
-0.86
-0.86
-0.74
-0.50
-0.18
0.13
0.36
0.46
0.44
0.37
0.27
0.16
0.02
-0.18
-0.41
-0.62
-0.73
-0.69
-0.49
-0.18
0.19
0.57
0.92
1.24
1.50
1.67
1.69
1.56
1.26
0.84
0.36
-0.08
-0.38
-0.44
-0.24
0.15
0.59
0.89
0.90
0.60
0.13
-0.31
-0.52
-0.39
0.01
0.58
1.18
1.75
2.12
2.10
1.42
-0.01
-1.99
-3.97
-5.28
-5.46
-4.48
-2.82
-1.16
-0.08
0.26
0.09
-0.17
-0.21
0.00
0.29
0.45
0.38
0.16
-0.06
-0.17
-0.15
-0.02
0.13
0.26
0.33
0.35
0.31
0.24
0.19
0.18
0.21
0.22
0.19
0.11
0.03
0.05
0.23
0.58
0.98
1.24
1.22
0.91
0.48
0.17
0.19
0.55
1.06
1.44
1.46
1.08
0.50
0.04
-0.04
0.33
0.98
1.59
1.82
1.53
0.83
0.05
-0.40
-0.21
0.64
1.85
2.93
3.35
2.92
1.90
0.69
-0.10
-0.16
0.45
1.53
2.93
4.50
5.87
6.19
4.36
-0.34
-7.46
-15.16
-20.78
-22.13
-18.70
-11.94
-4.56
0.98
3.60
3.87
3.23
2.94
3.25
3.61
3.27
1.99
0.28
-1.00
-1.22
-0.31
1.27
2.66
3.22
2.72
1.45
0.02
-0.93
-0.99
-0.21
1.03
2.14
2.70
2.54
1.82
0.92
0.17
-0.22
-0.23
0.02
0.34
0.56
0.61
0.51
0.32
0.14
0.07
0.15
0.34
0.58
0.79
0.91
0.92
0.78
0.48
0.04
-0.49
-1.01
-1.42
-1.65
-1.66
-1.49
-1.21
-0.87
-0.50
-0.14
0.17
0.36
0.40
0.29
0.11
-0.05
-0.09
0.02
0.22
0.45
0.61
0.66
0.63
0.57
0.55
0.59
0.69
0.81
0.92
0.97
0.97
0.90
0.77
0.58
0.32
0.01
-0.33
-0.65
-0.88
-1.02
-1.03
-0.93
-0.73
-0.43
-0.08
0.26
0.51
0.58
0.46
0.19
-0.12
-0.35
-0.41
-0.32
-0.15
0.01
0.07
0.02
-0.07
-0.15
-0.16
-0.11
-0.05
-0.06
-0.16
-0.30
-0.38
-0.29
-0.05
0.29
0.56
0.61
0.40
0.01
-0.40
-0.66
-0.65
-0.42
-0.08
0.20
0.30
0.21
-0.02
-0.26
-0.40
-0.40
-0.27
-0.09
0.07
0.19
0.31
0.46
0.67
0.87
0.97
0.89
0.65
0.36
0.15
0.12
0.22
0.35
0.35
0.18
-0.14
-0.47
-0.69
-0.75
-0.67
-0.51
-0.32
-0.12
0.09
0.30
0.51
0.70
0.83
0.89
0.86
0.72
0.48
0.16
-0.18
-0.48
-0.69
-0.82
-0.93
-1.05
-1.16
-1.19
-1.06
-0.71
-0.19
0.36
0.78
0.94
0.81
0.48
0.09
-0.23
-0.42
-0.49
-0.50
-0.46
-0.40
-0.31
-0.17
-0.02
0.13
0.26
0.38
0.47
0.51
0.44
0.23
-0.12
-0.54
-0.89
-1.07
-1.00
-0.72
-0.29
0.17
0.57
0.85
0.96
0.90
0.70
0.42
0.12
-0.11
-0.24
-0.28
-0.27
-0.25
-0.24
-0.20
-0.12
0.03
0.20
0.31
0.31
0.18
-0.00
-0.16
-0.23
-0.20
-0.13
-0.10
-0.14
-0.24
-0.33
-0.39
-0.43
-0.48
-0.58
-0.67
-0.65
-0.44
0.02
0.63
1.24
1.65
1.70
1.37
0.73
-0.03
-0.70
-1.11
-1.18
-0.94
-0.47
0.10
0.67
1.14
1.43
1.45
1.16
0.62
-0.03
-0.57
-0.82
-0.70
-0.33
0.09
0.32
0.29
0.03
-0.30
-0.54
-0.61
-0.49
-0.27
-0.04
0.10
0.12
0.03
-0.12
-0.25
-0.32
-0.31
-0.27
-0.28
-0.36
-0.52
-0.66
-0.73
-0.68
-0.56
-0.41
-0.28
-0.17
-0.04
0.09
0.20
0.25
0.21
0.11
0.01
-0.01
0.09
0.32
0.62
0.88
1.01
0.95
0.73
0.43
0.20
0.11
0.16
0.27
0.30
0.20
0.01
-0.14
-0.14
0.02
0.23
0.35
0.27
0.02
-0.29
-0.51
-0.59
-0.52
-0.37
-0.16
0.10
0.39
0.65
0.81
0.76
0.51
0.13
-0.21
-0.39
-0.34
-0.10
0.18
0.37
0.34
0.10
-0.27
-0.63
-0.84
-0.83
-0.58
-0.19
0.20
0.44
0.45
0.25
-0.07
-0.35
-0.50
-0.51
-0.47
-0.47
-0.59
-0.78
-0.92
-0.89
-0.64
-0.23
0.17
0.42
0.46
0.37
0.29
0.35
0.58
0.90
1.16
1.24
1.12
0.86
0.55
0.28
0.07
-0.09
-0.21
-0.27
-0.23
-0.10
0.09
0.22
0.20
0.01
-0.26
-0.48
-0.52
-0.33
-0.01
0.30
0.46
0.43
0.30
0.17
0.17
0.33
0.56
0.76
0.81
0.67
0.35
-0.04
-0.42
-0.72
-0.92
-1.03
-1.06
-1.02
-0.90
-0.72
-0.52
-0.35
-0.24
-0.20
-0.21
-0.23
-0.21
-0.14
-0.03
0.10
0.17
0.14
0.01
-0.18
-0.35
-0.39
-0.26
-0.03
0.19
0.32
0.32
0.24
0.19
0.22
0.30
0.33
0.24
0.04
-0.15
-0.22
-0.09
0.16
0.41
0.51
0.41
0.20
0.01
-0.05
0.02
0.17
0.28
0.29
0.20
0.03
-0.18
-0.40
-0.61
-0.77
-0.81
-0.71
-0.48
-0.20
0.03
0.18
0.26
0.34
0.50
0.71
0.89
0.93
0.77
0.45
0.07
-0.25
-0.44
-0.49
-0.45
-0.37
-0.27
-0.22
-0.21
-0.27
-0.38
-0.50
-0.54
-0.45
-0.19
0.17
0.53
0.80
0.92
0.87
0.68
0.39
0.04
-0.28
-0.47
-0.46
-0.22
0.17
0.58
0.84
0.86
0.66
0.33
0.01
-0.23
-0.37
-0.44
-0.51
-0.59
-0.64
-0.60
-0.43
-0.15
0.19
0.47
0.62
0.62
0.50
0.32
0.13
-0.03
-0.16
-0.24
-0.26
-0.22
-0.14
-0.05
0.04
0.10
0.16
0.25
0.38
0.51
0.59
0.58
0.47
0.29
0.09
-0.09
-0.25
-0.39
-0.48
-0.51
-0.47
-0.37
-0.27
-0.25
-0.34
-0.48
-0.61
-0.66
-0.59
-0.46
-0.32
-0.23
-0.21
-0.18
-0.10
0.06
0.27
0.44
0.50
0.41
0.26
0.13
0.10
0.19
0.30
0.32
0.19
-0.06
-0.28
-0.33
-0.15
0.19
0.53
0.71
0.66
0.44
0.16
-0.11
-0.33
-0.53
-0.73
-0.88
-0.94
-0.82
-0.56
-0.25
0.00
0.12
0.10
0.01
-0.09
-0.15
-0.16
-0.12
-0.04
0.06
0.18
0.27
0.30
0.26
0.17
0.08
0.02
-0.02
-0.03
-0.02
0.01
0.08
0.18
0.29
0.37
0.40
0.39
0.36
0.34
0.32
0.30
0.27
0.23
0.20
0.18
0.15
0.07
-0.08
-0.29
-0.48
-0.60
-0.58
-0.42
-0.16
0.12
0.32
0.40
0.37
0.30
0.26
0.29
0.38
0.44
0.40
0.26
0.05
-0.15
-0.30
-0.43
-0.54
-0.66
-0.75
-0.74
-0.60
-0.34
-0.06
0.16
0.25
0.21
0.08
-0.09
-0.23
-0.30
-0.29
-0.20
-0.07
0.06
0.15
0.18
0.15
0.10
0.06
0.05
0.08
0.14
0.20
0.20
0.10
-0.09
-0.31
-0.48
-0.50
-0.30
0.06
0.48
0.79
0.88
0.69
0.29
-0.18
-0.54
-0.69
-0.62
-0.39
-0.13
0.08
0.20
0.26
0.29
0.32
0.35
0.34
0.28
0.17
0.07
0.02
0.04
0.13
0.23
0.28
0.22
0.07
-0.14
-0.31
-0.37
-0.30
-0.10
0.14
0.36
0.52
0.58
0.53
0.38
0.13
-0.18
-0.46
-0.67
-0.74
-0.68
-0.52
-0.30
-0.05
0.21
0.43
0.55
0.53
0.35
0.06
-0.26
-0.50
-0.62
-0.60
-0.46
-0.25
0.01
0.28
0.49
0.58
0.51
0.30
-0.01
-0.34
-0.59
-0.72
-0.71
-0.59
-0.37
-0.11
0.14
0.32
0.39
0.35
0.23
0.08
-0.04
-0.09
-0.03
0.13
0.31
0.44
0.44
0.29
0.02
-0.26
-0.46
-0.50
-0.38
-0.18
0.03
0.18
0.26
0.27
0.21
0.09
-0.09
-0.30
-0.51
-0.65
-0.67
-0.55
-0.32
-0.07
0.12
0.21
0.20
0.12
0.07
0.09
0.20
0.35
0.48
0.53
0.47
0.35
0.23
0.14
0.11
0.08
0.01
-0.10
-0.22
-0.27
-0.19
-0.01
0.14
0.17
0.00
-0.29
-0.58
-0.73
-0.71
-0.58
-0.42
-0.31
-0.24
-0.12
0.11
0.43
0.76
0.99
1.06
1.02
0.94
0.89
0.88
0.85
0.75
0.56
0.29
-0.00
-0.26
-0.45
-0.54
-0.49
-0.31
-0.04
0.25
0.42
0.40
0.18
-0.14
-0.41
-0.50
-0.40
-0.16
0.08
0.23
0.24
0.15
0.01
-0.11
-0.19
-0.25
-0.29
-0.33
-0.35
-0.37
-0.40
-0.44
-0.49
-0.55
-0.58
-0.56
-0.50
-0.40
-0.27
-0.13
0.06
0.33
0.64
0.97
1.23
1.32
1.20
0.91
0.54
0.17
-0.11
-0.28
-0.36
-0.40
-0.45
-0.49
-0.50
-0.45
-0.32
-0.13
0.09
0.28
0.40
0.40
0.27
0.04
-0.25
-0.51
-0.68
-0.74
-0.69
-0.58
-0.44
-0.30
-0.15
0.00
0.14
0.23
0.25
0.20
0.12
0.02
-0.10
-0.27
-0.54
-0.90
-1.28
-1.55
-1.61
-1.41
-1.01
-0.55
-0.20
-0.06
-0.12
-0.24
-0.26
-0.07
0.36
0.90
1.38
1.65
1.63
1.36
0.95
0.53
0.17
-0.08
-0.22
-0.27
-0.26
-0.19
-0.05
0.18
0.48
0.80
1.03
1.03
0.77
0.32
-0.13
-0.36
-0.26
0.09
0.43
0.49
0.17
-0.37
-0.82
-0.89
-0.51
0.10
0.57
0.60
0.17
-0.45
-0.85
-0.72
-0.05
0.86
1.59
1.77
1.28
0.42
-0.50
-1.01
-0.92
-0.27
0.76
1.97
3.22
4.29
4.74
4.00
1.74
-1.80
-5.64
-8.38
-8.94
-7.09
-3.67
-0.13
2.20
2.86
2.25
1.30
0.75
0.76
0.96
0.87
0.28
-0.60
-1.28
-1.42
-0.97
-0.07
0.80
1.31
1.33
0.92
0.36
-0.05
-0.11
0.20
0.71
1.18
1.42
1.35
1.02
0.59
0.19
-0.06
-0.18
-0.24
-0.34
-0.53
-0.77
-0.97
-1.02
-0.90
-0.67
-0.45
-0.32
-0.30
-0.30
-0.23
-0.04
0.21
0.42
0.46
0.33
0.10
-0.09
-0.13
0.01
0.24
0.43
0.46
0.33
0.10
-0.13
-0.27
-0.30
-0.28
-0.27
-0.34
-0.49
-0.67
-0.79
-0.78
-0.61
-0.33
-0.03
0.21
0.34
0.37
0.33
0.27
0.17
0.04
-0.14
-0.31
-0.38
-0.30
-0.07
0.21
0.40
0.40
0.19
-0.13
-0.42
-0.56
-0.52
-0.31
-0.01
0.33
0.63
0.82
0.85
0.70
0.39
0.03
-0.29
-0.48
-0.54
-0.51
-0.45
-0.38
-0.26
-0.06
0.22
0.52
0.71
0.72
0.53
0.21
-0.13
-0.40
-0.55
-0.56
-0.44
-0.22
0.09
0.42
0.69
0.83
0.81
0.65
0.46
0.29
0.18
0.09
-0.02
-0.13
-0.21
-0.21
-0.12
-0.02
0.01
-0.07
-0.22
-0.36
-0.41
-0.31
-0.13
0.06
0.18
0.23
0.23
0.22
0.23
0.23
0.20
0.14
0.06
0.00
0.01
0.09
0.22
0.34
0.37
0.26
0.03
-0.25
-0.47
-0.50
-0.31
0.03
0.37
0.54
0.45
0.15
-0.24
-0.58
-0.77
-0.82
-0.77
-0.64
-0.44
-0.15
0.23
0.61
0.87
0.88
0.64
0.22
-0.22
-0.51
-0.57
-0.41
-0.16
0.03
0.09
0.01
-0.12
-0.20
-0.18
-0.08
0.03
0.11
0.12
0.10
0.07
0.04
0.01
-0.03
-0.07
-0.05
0.09
0.30
0.49
0.52
0.31
-0.07
-0.50
-0.78
-0.83
-0.65
-0.36
-0.08
0.12
0.23
0.31
0.38
0.42
0.35
0.13
-0.25
-0.68
-1.02
-1.12
-0.94
-0.53
-0.02
0.44
0.74
0.85
0.79
0.63
0.45
0.32
0.26
0.24
0.23
0.20
0.12
-0.00
-0.14
-0.25
-0.28
-0.21
-0.07
0.08
0.19
0.21
0.14
0.03
-0.07
-0.10
-0.07
-0.02
0.02
0.02
0.02
0.07
0.22
0.48
0.80
1.13
1.39
1.52
1.46
1.18
0.69
0.04
-0.63
-1.16
-1.43
-1.38
-1.06
-0.60
-0.19
0.06
0.08
-0.08
-0.31
-0.43
-0.34
-0.02
0.43
0.82
0.96
0.75
0.24
-0.43
-1.07
-1.48
-1.59
-1.38
-0.96
-0.45
-0.01
0.25
0.31
0.21
0.04
-0.09
-0.13
-0.07
0.03
0.12
0.17
0.23
0.29
0.34
0.30
0.12
-0.19
-0.51
-0.68
-0.56
-0.16
0.37
0.78
0.89
0.67
0.24
-0.16
-0.35
-0.29
-0.08
0.11
0.18
0.12
-0.02
-0.15
-0.23
-0.29
-0.32
-0.31
-0.21
0.01
0.29
0.51
0.57
0.38
-0.00
-0.45
-0.82
-1.01
-0.96
-0.71
-0.33
0.09
0.44
0.62
0.57
0.33
-0.01
-0.29
-0.41
-0.34
-0.16
0.01
0.12
0.18
0.22
0.26
0.27
0.17
-0.08
-0.42
-0.69
-0.75
-0.50
0.02
0.63
1.16
1.47
1.48
1.22
0.75
0.20
-0.34
-0.75
-0.94
-0.85
-0.53
-0.07
0.39
0.73
0.85
0.74
0.46
0.08
-0.28
-0.52
-0.58
-0.45
-0.20
0.08
0.28
0.38
0.37
0.30
0.19
0.05
-0.14
-0.39
-0.67
-0.88
-0.92
-0.75
-0.38
0.11
0.53
0.75
0.69
0.42
0.06
-0.20
-0.26
-0.11
0.15
0.35
0.40
0.29
0.09
-0.07
-0.12
-0.05
0.07
0.20
0.31
0.39
0.47
0.54
0.57
0.54
0.44
0.32
0.23
0.21
0.25
0.28
0.25
0.12
-0.10
-0.38
-0.67
-0.93
-1.13
-1.25
-1.28
-1.22
-1.04
-0.77
-0.40
0.01
0.41
0.72
0.87
0.84
0.66
0.42
0.21
0.06
-0.05
-0.15
-0.29
-0.45
-0.58
-0.59
-0.45
-0.17
0.17
0.48
0.70
0.80
0.82
0.79
0.75
0.68
0.59
0.44
0.24
0.02
-0.16
-0.25
-0.25
-0.21
-0.19
-0.22
-0.30
-0.37
-0.36
-0.25
-0.06
0.12
0.23
0.24
0.17
0.06
-0.06
-0.17
-0.26
-0.31
-0.29
-0.20
-0.06
0.02
-0.02
-0.21
-0.49
-0.74
-0.86
-0.84
-0.72
-0.61
-0.60
-0.69
-0.80
-0.79
-0.59
-0.22
0.23
0.62
0.85
0.90
0.85
0.78
0.75
0.76
0.76
0.68
0.50
0.27
0.09
0.02
0.09
0.28
0.50
0.66
0.66
0.49
0.17
-0.18
-0.44
-0.53
-0.44
-0.26
-0.13
-0.15
-0.32
-0.54
-0.66
-0.61
-0.40
-0.15
0.02
0.04
-0.07
-0.21
-0.27
-0.19
-0.00
0.21
0.32
0.23
-0.06
-0.47
-0.85
-1.08
-1.08
-0.87
-0.51
-0.13
0.18
0.39
0.51
0.57
0.62
0.69
0.75
0.79
0.75
0.59
0.32
-0.01
-0.32
-0.48
-0.43
-0.18
0.21
0.64
1.04
1.37
1.59
1.65
1.51
1.13
0.58
-0.00
-0.47
-0.70
-0.72
-0.65
-0.65
-0.79
-0.99
-1.13
-1.05
-0.75
-0.32
0.06
0.23
0.17
-0.03
-0.23
-0.31
-0.26
-0.18
-0.16
-0.24
-0.39
-0.49
-0.47
-0.31
-0.07
0.14
0.26
0.27
0.20
0.05
-0.16
-0.40
-0.63
-0.78
-0.76
-0.55
-0.20
0.18
0.43
0.50
0.39
0.22
0.09
0.05
0.08
0.13
0.14
0.12
0.10
0.13
0.23
0.39
0.55
0.65
0.64
0.57
0.46
0.37
0.32
0.29
0.24
0.14
-0.02
-0.23
-0.42
-0.55
-0.59
-0.53
-0.38
-0.19
0.02
0.21
0.36
0.43
0.40
0.27
0.06
-0.15
-0.30
-0.33
-0.27
-0.16
-0.07
-0.05
-0.10
-0.19
-0.27
-0.30
-0.21
-0.02
0.28
0.61
0.89
1.01
0.90
0.55
0.05
-0.45
-0.80
-0.91
-0.75
-0.43
-0.06
0.24
0.41
0.49
0.52
0.57
0.65
0.74
0.77
0.75
0.68
0.57
0.44
0.24
-0.05
-0.44
-0.87
-1.22
-1.41
-1.40
-1.23
-1.00
-0.81
-0.69
-0.62
-0.53
-0.41
-0.26
-0.11
0.01
0.07
0.10
0.10
0.09
0.07
0.05
0.05
0.09
0.19
0.31
0.40
0.44
0.43
0.41
0.43
0.55
0.75
0.95
1.08
1.03
0.79
0.42
0.03
-0.28
-0.42
-0.42
-0.35
-0.33
-0.43
-0.66
-0.92
-1.09
-1.07
-0.82
-0.45
-0.10
0.09
0.07
-0.10
-0.31
-0.43
-0.36
-0.13
0.17
0.44
0.60
0.64
0.58
0.48
0.37
0.27
0.19
0.13
0.07
0.00
-0.09
-0.19
-0.28
-0.28
-0.18
-0.00
0.18
0.28
0.26
0.16
0.09
0.10
0.22
0.38
0.49
0.49
0.40
0.27
0.17
0.12
0.10
0.06
-0.01
-0.10
-0.18
-0.26
-0.34
-0.42
-0.50
-0.51
-0.41
-0.19
0.10
0.39
0.59
0.68
0.67
0.60
0.53
0.47
0.39
0.25
-0.00
-0.36
-0.77
-1.15
-1.39
-1.40
-1.16
-0.74
-0.26
0.18
0.45
0.53
0.42
0.20
-0.06
-0.24
-0.28
-0.14
0.15
0.50
0.80
0.94
0.90
0.72
0.51
0.34
0.25
0.21
0.16
0.04
-0.15
-0.35
-0.51
-0.58
-0.54
-0.45
-0.33
-0.22
-0.17
-0.15
-0.15
-0.17
-0.16
-0.13
-0.06
0.07
0.24
0.41
0.55
0.60
0.55
0.41
0.21
0.01
-0.12
-0.19
-0.22
-0.26
-0.35
-0.50
-0.68
-0.81
-0.84
-0.73
-0.52
-0.28
-0.04
0.16
0.36
0.56
0.79
0.97
1.05
0.94
0.64
0.22
-0.15
-0.34
-0.25
0.09
0.51
0.84
0.92
0.72
0.29
-0.25
-0.76
-1.19
-1.50
-1.67
-1.68
-1.47
-1.05
-0.47
0.12
0.55
0.71
0.55
0.16
-0.30
-0.67
-0.80
-0.67
-0.33
0.09
0.46
0.64
0.62
0.45
0.25
0.15
0.22
0.44
0.73
0.97
1.07
1.01
0.84
0.60
0.35
0.11
-0.11
-0.29
-0.37
-0.32
-0.12
0.16
0.42
0.55
0.48
0.22
-0.14
-0.48
-0.71
-0.77
-0.66
-0.41
-0.11
0.13
0.23
0.12
-0.16
-0.49
-0.74
-0.80
-0.68
-0.44
-0.22
-0.08
-0.03
-0.04
-0.02
0.02
0.09
0.14
0.16
0.15
0.17
0.24
0.35
0.45
0.48
0.43
0.34
0.25
0.21
0.19
0.13
-0.04
-0.30
-0.56
-0.71
-0.62
-0.30
0.15
0.59
0.86
0.91
0.79
0.55
0.27
-0.02
-0.32
-0.57
-0.71
-0.68
-0.46
-0.13
0.17
0.29
0.20
-0.08
-0.39
-0.61
-0.67
-0.57
-0.40
-0.26
-0.20
-0.20
-0.23
-0.22
-0.13
0.06
0.33
0.62
0.87
1.01
0.99
0.81
0.51
0.18
-0.12
-0.32
-0.41
-0.40
-0.32
-0.21
-0.10
-0.00
0.05
0.03
-0.04
-0.16
-0.25
-0.26
-0.16
0.01
0.15
0.19
0.09
-0.11
-0.29
-0.32
-0.14
0.17
0.49
0.66
0.64
0.46
0.25
0.12
0.07
0.07
0.03
-0.09
-0.25
-0.38
-0.38
-0.23
0.00
0.20
0.27
0.18
-0.01
-0.22
-0.37
-0.43
-0.42
-0.39
-0.35
-0.29
-0.19
-0.02
0.18
0.38
0.47
0.42
0.23
-0.06
-0.35
-0.55
-0.62
-0.54
-0.35
-0.13
0.06
0.18
0.20
0.16
0.12
0.12
0.19
0.32
0.47
0.57
0.56
0.45
0.27
0.12
0.07
0.18
0.44
0.75
1.00
1.05
0.87
0.48
0.03
-0.34
-0.49
-0.42
-0.22
-0.04
0.03
-0.02
-0.13
-0.21
-0.19
-0.07
0.10
0.25
0.36
0.41
0.42
0.40
0.37
0.33
0.29
0.22
0.13
0.01
-0.14
-0.31
-0.45
-0.54
-0.59
-0.60
-0.63
-0.67
-0.71
-0.74
-0.73
-0.71
-0.71
-0.71
-0.69
-0.57
-0.31
0.10
0.56
0.94
1.12
1.06
0.82
0.49
0.16
-0.11
-0.37
-0.61
-0.83
-0.97
-0.98
-0.81
-0.50
-0.14
0.18
0.39
0.46
0.40
0.23
-0.03
-0.34
-0.65
-0.86
-0.91
-0.76
-0.48
-0.19
0.01
0.07
0.02
-0.06
-0.09
-0.07
0.02
0.13
0.27
0.44
0.65
0.89
1.13
1.28
1.29
1.12
0.82
0.45
0.12
-0.10
-0.17
-0.11
0.06
0.28
0.49
0.63
0.63
0.40
-0.07
-0.72
-1.38
-1.82
-1.88
-1.54
-0.96
-0.38
-0.02
0.01
-0.20
-0.47
-0.62
-0.54
-0.26
0.11
0.41
0.54
0.53
0.44
0.41
0.50
0.70
0.91
1.00
0.88
0.54
0.07
-0.43
-0.81
-1.01
-0.99
-0.78
-0.44
-0.04
0.34
0.65
0.85
0.94
0.93
0.82
0.62
0.34
0.00
-0.32
-0.56
-0.67
-0.63
-0.50
-0.35
-0.26
-0.24
-0.25
-0.21
-0.03
0.29
0.70
1.12
1.42
1.51
1.37
1.00
0.45
-0.18
-0.79
-1.27
-1.52
-1.48
-1.19
-0.74
-0.27
0.09
0.27
0.31
0.25
0.17
0.09
0.00
-0.09
-0.18
-0.22
-0.17
-0.06
0.06
0.07
-0.06
-0.32
-0.61
-0.82
-0.82
-0.62
-0.28
0.11
0.43
0.65
0.76
0.79
0.76
0.68
0.56
0.41
0.28
0.20
0.23
0.36
0.51
0.60
0.55
0.33
0.01
-0.31
-0.56
-0.72
-0.83
-0.97
-1.15
-1.30
-1.29
-1.06
-0.60
-0.04
0.45
0.72
0.72
0.50
0.17
-0.16
-0.40
-0.51
-0.45
-0.21
0.22
0.76
1.26
1.55
1.49
1.09
0.49
-0.09
-0.44
-0.49
-0.28
0.02
0.25
0.33
0.27
0.16
0.10
0.12
0.20
0.27
0.26
0.16
-0.01
-0.19
-0.31
-0.35
-0.30
-0.20
-0.09
0.01
0.08
0.15
0.22
0.31
0.42
0.50
0.52
0.44
0.26
0.02
-0.21
-0.37
-0.40
-0.32
-0.20
-0.11
-0.13
-0.28
-0.51
-0.74
-0.87
-0.84
-0.64
-0.34
-0.02
0.25
0.43
0.51
0.50
0.41
0.27
0.07
-0.14
-0.32
-0.43
-0.40
-0.26
-0.02
0.22
0.38
0.36
0.15
-0.19
-0.54
-0.75
-0.73
-0.49
-0.14
0.18
0.36
0.35
0.24
0.11
0.07
0.13
0.25
0.37
0.43
0.38
0.23
0.04
-0.14
-0.24
-0.21
-0.08
0.06
0.12
0.05
-0.15
-0.38
-0.55
-0.56
-0.43
-0.24
-0.09
-0.08
-0.20
-0.41
-0.61
-0.69
-0.61
-0.36
-0.00
0.39
0.71
0.88
0.84
0.63
0.31
0.00
-0.19
-0.25
-0.19
-0.12
-0.09
-0.11
-0.14
-0.10
0.06
0.30
0.57
0.77
0.84
0.77
0.57
0.25
-0.13
-0.53
-0.85
-0.99
-0.90
-0.59
-0.15
0.27
0.55
0.61
0.47
0.16
-0.21
-0.53
-0.71
-0.71
-0.52
-0.23
0.07
0.30
0.42
0.43
0.35
0.23
0.09
-0.07
-0.24
-0.41
-0.55
-0.63
-0.60
-0.45
-0.22
0.04
0.24
0.31
0.25
0.11
0.02
0.09
0.37
0.76
1.14
1.36
1.35
1.14
0.80
0.45
0.16
-0.02
-0.08
-0.01
0.15
0.37
0.57
0.68
0.68
0.59
0.49
0.44
0.47
0.52
0.52
0.41
0.16
-0.17
-0.48
-0.69
-0.77
-0.76
-0.72
-0.72
-0.80
-0.93
-1.07
-1.21
-1.30
-1.36
-1.36
-1.29
-1.13
-0.89
-0.62
-0.34
-0.09
0.09
0.20
0.23
0.17
0.06
-0.07
-0.17
-0.16
-0.05
0.16
0.41
0.64
0.81
0.90
0.90
0.81
0.68
0.55
0.49
0.54
0.71
0.91
1.05
1.04
0.83
0.46
0.02
-0.39
-0.71
-0.90
-0.94
-0.84
-0.63
-0.36
-0.10
0.09
0.21
0.32
0.46
0.65
0.83
0.88
0.76
0.46
0.08
-0.24
-0.42
-0.46
-0.47
-0.53
-0.71
-0.97
-1.22
-1.37
-1.34
-1.18
-0.93
-0.70
-0.52
-0.42
-0.36
-0.31
-0.24
-0.15
-0.06
0.02
0.07
0.11
0.15
0.15
0.08
-0.09
-0.33
-0.54
-0.60
-0.43
-0.06
0.40
0.80
1.02
1.01
0.83
0.56
0.30
0.09
-0.05
-0.10
-0.04
0.15
0.48
0.86
1.18
1.28
1.08
0.60
-0.03
-0.60
-0.89
-0.82
-0.43
0.08
0.51
0.68
0.58
0.31
0.03
-0.14
-0.15
-0.07
0.03
0.08
0.07
0.04
0.03
0.06
0.07
0.02
-0.10
-0.29
-0.46
-0.54
-0.46
-0.23
0.11
0.47
0.75
0.89
0.88
0.76
0.57
0.38
0.20
0.02
-0.13
-0.24
-0.25
-0.16
0.03
0.26
0.44
0.51
0.40
0.14
-0.23
-0.61
-0.92
-1.07
-1.04
-0.85
-0.53
-0.17
0.17
0.41
0.49
0.38
0.13
-0.14
-0.33
-0.36
-0.24
-0.05
0.12
0.21
0.21
0.17
0.14
0.12
0.11
0.05
-0.05
-0.17
-0.25
-0.25
-0.18
-0.06
0.04
0.10
0.11
0.10
0.08
0.06
0.05
0.02
-0.04
-0.12
-0.20
-0.26
-0.29
-0.29
-0.23
-0.07
0.18
0.49
0.72
0.76
0.52
0.06
-0.47
-0.87
-0.98
-0.78
-0.38
0.05
0.36
0.45
0.32
0.02
-0.34
-0.62
-0.74
-0.63
-0.31
0.15
0.61
0.91
0.95
0.71
0.27
-0.25
-0.66
-0.84
-0.75
-0.42
0.03
0.47
0.77
0.83
0.65
0.25
-0.24
-0.69
-0.97
-0.99
-0.75
-0.32
0.18
0.63
0.93
1.05
1.01
0.83
0.54
0.20
-0.11
-0.31
-0.32
-0.14
0.15
0.40
0.50
0.42
0.22
0.04
0.01
0.14
0.36
0.52
0.50
0.28
-0.07
-0.40
-0.59
-0.61
-0.48
-0.29
-0.12
-0.07
-0.19
-0.50
-0.90
-1.23
-1.27
-0.87
-0.03
1.03
1.98
2.46
2.33
1.72
1.00
0.57
0.67
1.21
1.90
2.30
2.16
1.57
0.75
0.18
0.08
0.50
1.31
2.34
3.46
4.46
4.82
3.85
0.97
-3.73
-9.23
-13.84
-15.92
-14.74
-10.91
-6.03
-1.87
0.55
1.30
1.23
1.29
1.84
2.59
2.94
2.52
1.49
0.46
0.04
0.50
1.71
3.01
3.82
3.72
2.75
1.33
0.03
-0.65
-0.50
0.35
1.52
2.59
3.18
3.14
2.48
1.37
0.07
-1.12
-1.96
-2.32
-2.22
-1.78
-1.23
-0.78
-0.53
-0.45
-0.41
-0.24
0.13
0.63
1.08
1.26
1.08
0.59
0.02
-0.38
-0.47
-0.28
0.01
0.20
0.17
-0.03
-0.26
-0.37
-0.31
-0.08
0.20
0.46
0.66
0.75
0.70
0.48
0.07
-0.46
-0.98
-1.35
-1.45
-1.28
-0.94
-0.58
-0.28
-0.10
-0.02
0.01
0.04
0.08
0.10
0.09
0.03
-0.06
-0.15
-0.21
-0.20
-0.16
-0.07
0.01
0.08
0.12
0.11
0.10
0.08
0.11
0.16
0.26
0.40
0.57
0.76
0.91
0.96
0.82
0.48
-0.04
-0.58
-0.99
-1.15
-1.04
-0.72
-0.33
0.03
0.30
0.46
0.54
0.54
0.47
0.35
0.24
0.19
0.23
0.37
0.60
0.85
1.07
1.19
1.13
0.84
0.33
-0.32
-0.93
-1.31
-1.34
-1.06
-0.61
-0.21
-0.05
-0.21
-0.63
-1.16
-1.61
-1.83
-1.77
-1.48
-1.06
-0.63
-0.30
-0.06
0.08
0.17
0.22
0.24
0.25
0.27
0.32
0.43
0.59
0.73
0.80
0.75
0.58
0.33
0.07
-0.10
-0.12
0.07
0.44
0.89
1.30
1.52
1.48
1.18
0.72
0.23
-0.15
-0.36
-0.39
-0.30
-0.20
-0.13
-0.11
-0.12
-0.10
-0.05
0.02
0.04
-0.04
-0.23
-0.46
-0.65
-0.74
-0.72
-0.66
-0.63
-0.63
-0.64
-0.61
-0.49
-0.33
-0.17
-0.08
-0.03
0.01
0.12
0.30
0.53
0.74
0.88
0.93
0.90
0.83
0.71
0.58
0.45
0.36
0.35
0.42
0.53
0.57
0.52
0.37
0.18
0.04
-0.01
0.03
0.10
0.13
0.11
0.07
0.05
0.06
0.09
0.08
-0.00
-0.15
-0.32
-0.47
-0.54
-0.49
-0.32
-0.08
0.17
0.33
0.33
0.14
-0.17
-0.49
-0.69
-0.68
-0.48
-0.20
0.06
0.21
0.27
0.34
0.54
0.90
1.37
1.81
2.06
2.01
1.70
1.25
0.85
0.63
0.66
0.88
1.18
1.40
1.37
0.98
0.16
-1.05
-2.50
-3.88
-4.88
-5.22
-4.87
-4.00
-2.96
-2.09
-1.58
-1.39
-1.35
-1.25
-1.03
-0.70
-0.39
-0.17
-0.03
0.10
0.29
0.57
0.90
1.17
1.26
1.14
0.86
0.55
0.36
0.36
0.55
0.83
1.06
1.16
1.10
0.89
0.61
0.31
0.00
-0.25
-0.41
-0.42
-0.27
0.03
0.38
0.71
0.94
1.07
1.10
1.06
0.93
0.73
0.50
0.29
0.14
0.06
-0.02
-0.14
-0.35
-0.62
-0.85
-0.97
-0.96
-0.85
-0.72
-0.62
-0.56
-0.47
-0.30
-0.03
0.28
0.54
0.67
0.64
0.46
0.21
-0.05
-0.28
-0.42
-0.48
-0.45
-0.35
-0.21
-0.04
0.14
0.34
0.54
0.73
0.87
0.91
0.81
0.58
0.28
0.03
-0.04
0.10
0.43
0.80
1.07
1.12
0.91
0.50
-0.00
-0.47
-0.81
-0.95
-0.92
-0.74
-0.51
-0.32
-0.24
-0.28
-0.42
-0.56
-0.64
-0.62
-0.52
-0.41
-0.32
-0.26
-0.22
-0.15
-0.05
0.10
0.25
0.34
0.34
0.22
0.04
-0.14
-0.23
-0.20
-0.08
0.03
0.05
-0.04
-0.20
-0.33
-0.36
-0.25
-0.06
0.17
0.38
0.54
0.65
0.70
0.70
0.65
0.59
0.54
0.52
0.49
0.45
0.36
0.23
0.08
-0.05
-0.19
-0.36
-0.58
-0.81
-0.95
-0.88
-0.56
-0.07
0.41
0.68
0.63
0.28
-0.17
-0.51
-0.57
-0.34
0.01
0.30
0.39
0.29
0.10
-0.02
-0.02
0.07
0.15
0.13
0.01
-0.11
-0.13
0.02
0.33
0.69
0.93
0.96
0.74
0.33
-0.15
-0.58
-0.85
-0.92
-0.80
-0.58
-0.36
-0.25
-0.31
-0.52
-0.81
-1.05
-1.09
-0.86
-0.38
0.23
0.77
1.04
0.92
0.48
-0.10
-0.51
-0.50
-0.01
0.83
1.68
2.14
1.99
1.35
0.45
-0.26
-0.48
-0.16
0.60
1.67
2.93
4.13
4.76
4.15
1.87
-1.88
-6.10
-9.31
-10.24
-8.52
-4.90
-0.87
2.15
3.53
3.50
2.84
2.26
1.90
1.49
0.70
-0.50
-1.70
-2.35
-2.11
-1.08
0.33
1.41
1.72
1.21
0.20
-0.71
-0.99
-0.47
0.70
2.02
2.92
3.04
2.34
1.16
0.03
-0.56
-0.36
0.53
1.74
2.73
3.09
2.67
1.65
0.47
-0.36
-0.58
-0.22
0.36
0.67
0.37
-0.49
-1.62
-2.47
-2.54
-1.67
-0.00
2.14
4.30
5.95
6.38
4.92
1.32
-3.88
-9.26
-13.04
-13.82
-11.37
-6.82
-2.04
1.37
2.70
2.53
2.01
2.06
2.92
4.21
5.33
5.77
5.22
3.57
0.87
-2.57
-5.93
-8.27
-8.84
-7.56
-5.14
-2.66
-0.98
-0.25
0.05
0.63
1.85
3.40
4.62
4.91
4.10
2.52
0.68
-0.96
-2.20
-2.86
-3.02
-2.72
-2.06
-1.22
-0.38
0.32
0.90
1.44
2.01
2.53
2.85
2.83
2.42
1.71
0.93
0.28
-0.15
-0.35
-0.34
-0.21
-0.03
0.12
0.15
0.02
-0.23
-0.47
-0.51
-0.25
0.32
1.02
1.65
1.98
1.95
1.61
1.14
0.77
0.67
0.87
1.25
1.55
1.49
0.94
0.06
-0.91
-1.52
-1.49
-0.79
0.43
1.96
3.57
4.91
5.43
4.50
1.80
-2.31
-6.70
-9.83
-10.54
-8.64
-5.08
-1.40
1.10
1.98
1.75
1.29
1.27
1.66
1.97
1.78
1.14
0.60
0.76
1.76
3.11
4.00
3.55
1.61
-1.22
-3.72
-4.68
-3.49
-0.50
3.14
6.02
7.02
5.99
3.58
0.92
-0.90
-1.28
-0.21
2.02
5.17
8.79
11.87
12.62
9.02
0.13
-12.77
-26.06
-35.08
-36.39
-29.62
-17.71
-5.38
3.36
7.02
6.82
5.38
4.79
5.46
6.38
6.19
4.43
1.81
-0.31
-0.93
0.17
2.30
4.22
4.95
4.17
2.31
0.28
-0.99
-1.00
0.14
1.81
3.18
3.64
3.03
1.68
0.22
-0.72
-0.80
-0.06
1.06
2.01
2.40
2.09
1.27
0.29
-0.50
-0.89
-0.85
-0.52
-0.09
0.24
0.39
0.33
0.16
-0.02
-0.10
-0.03
0.18
0.42
0.61
0.67
0.61
0.50
0.39
0.36
0.39
0.45
0.48
0.42
0.27
0.07
-0.11
-0.20
-0.16
-0.04
0.10
0.19
0.17
0.07
-0.05
-0.15
-0.22
-0.26
-0.32
-0.41
-0.46
-0.42
-0.23
0.08
0.39
0.57
0.49
0.14
-0.38
-0.86
-1.13
-1.11
-0.83
-0.41
0.01
0.34
0.56
0.67
0.71
0.69
0.61
0.45
0.28
0.14
0.10
0.16
0.26
0.31
0.21
-0.05
-0.43
-0.82
-1.11
-1.25
-1.23
-1.10
-0.93
-0.81
-0.76
-0.79
-0.86
-0.88
-0.79
-0.54
-0.16
0.26
0.57
0.64
0.43
0.01
-0.49
-0.89
-1.08
-1.00
-0.68
-0.22
0.26
0.65
0.87
0.90
0.79
0.64
0.54
0.57
0.71
0.90
1.05
1.08
0.95
0.69
0.32
-0.08
-0.47
-0.79
-0.97
-0.97
-0.79
-0.46
-0.10
0.20
0.35
0.36
0.26
0.12
0.02
-0.01
0.02
0.11
0.22
0.32
0.41
0.46
0.47
0.47
0.51
0.59
0.70
0.74
0.63
0.35
-0.04
-0.43
-0.66
-0.69
-0.53
-0.31
-0.12
-0.05
-0.05
-0.07
-0.05
0.01
0.04
-0.01
-0.18
-0.40
-0.61
-0.73
-0.71
-0.61
-0.46
-0.33
-0.24
-0.17
-0.08
0.02
0.13
0.21
0.22
0.18
0.13
0.15
0.25
0.41
0.55
0.58
0.48
0.27
0.03
-0.12
-0.15
-0.06
0.07
0.19
0.25
0.24
0.16
0.03
-0.15
-0.35
-0.52
-0.59
-0.57
-0.47
-0.34
-0.25
-0.21
-0.18
-0.16
-0.14
-0.12
-0.10
-0.06
0.05
0.24
0.49
0.69
0.75
0.62
0.33
-0.01
-0.28
-0.39
-0.34
-0.15
0.10
0.37
0.59
0.71
0.69
0.53
0.29
0.07
-0.04
0.02
0.24
0.53
0.77
0.86
0.79
0.58
0.31
0.07
-0.11
-0.21
-0.25
-0.26
-0.25
-0.25
-0.24
-0.24
-0.26
-0.30
-0.36
-0.42
-0.47
-0.48
-0.46
-0.42
-0.37
-0.33
-0.25
-0.12
0.06
0.22
0.28
0.17
-0.09
-0.42
-0.61
-0.54
-0.17
0.37
0.85
1.05
0.88
0.43
-0.12
-0.56
-0.78
-0.77
-0.63
-0.45
-0.28
-0.10
0.11
0.35
0.56
0.64
0.53
0.26
-0.06
-0.28
-0.31
-0.14
0.12
0.33
0.33
0.10
-0.30
-0.71
-1.00
-1.06
-0.89
-0.55
-0.15
0.22
0.47
0.60
0.61
0.55
0.45
0.35
0.26
0.15
0.02
-0.12
-0.21
-0.17
0.00
0.26
0.49
0.59
0.51
0.31
0.11
0.02
0.05
0.17
0.30
0.36
0.36
0.31
0.23
0.09
-0.14
-0.43
-0.72
-0.89
-0.86
-0.62
-0.28
0.05
0.24
0.25
0.13
-0.05
-0.19
-0.25
-0.22
-0.15
-0.05
0.04
0.10
0.10
0.04
-0.05
-0.11
-0.12
-0.09
-0.08
-0.12
-0.22
-0.32
-0.34
-0.25
-0.07
0.11
0.23
0.27
0.31
0.44
0.68
0.94
1.05
0.88
0.43
-0.15
-0.62
-0.79
-0.64
-0.27
0.13
0.41
0.50
0.43
0.29
0.15
0.03
-0.09
-0.23
-0.41
-0.61
-0.76
-0.83
-0.80
-0.65
-0.43
-0.19
0.01
0.17
0.29
0.40
0.53
0.67
0.75
0.73
0.57
0.32
0.08
-0.05
-0.02
0.16
0.44
0.70
0.85
0.82
0.58
0.20
-0.19
-0.48
-0.56
-0.42
-0.16
0.04
0.04
-0.18
-0.53
-0.78
-0.75
-0.41
0.07
0.42
0.41
-0.01
-0.67
-1.22
-1.34
-0.89
0.03
1.11
1.98
2.34
2.11
1.50
0.72
0.16
0.05
0.42
1.22
2.29
3.46
4.36
4.41
3.00
-0.13
-4.52
-8.95
-11.84
-12.04
-9.45
-5.15
-0.83
2.03
2.92
2.34
1.35
0.82
0.94
1.31
1.37
0.88
0.06
-0.52
-0.45
0.33
1.60
2.75
3.26
2.90
1.79
0.39
-0.74
-1.20
-0.90
-0.09
0.78
1.35
1.44
1.17
0.78
0.55
0.60
0.88
1.27
1.65
1.96
2.16
2.13
1.66
0.62
-0.92
-2.61
-3.95
-4.50
-4.11
-2.99
-1.62
-0.46
0.25
0.50
0.50
0.42
0.35
0.27
0.15
0.05
0.11
0.43
1.01
1.68
2.19
2.23
1.64
0.53
-0.76
-1.82
-2.26
-1.97
-1.12
-0.11
0.68
1.08
1.07
0.92
0.85
0.97
1.27
1.68
2.12
2.41
2.28
1.39
-0.44
-3.01
-5.66
-7.47
-7.76
-6.38
-3.90
-1.30
0.57
1.37
1.36
1.10
1.03
1.20
1.34
1.10
0.41
-0.46
-1.04
-0.98
-0.24
0.97
2.18
2.97
3.10
2.57
1.61
0.51
-0.41
-0.93
-0.98
-0.64
-0.11
0.40
0.72
0.81
0.71
0.58
0.53
0.61
0.78
0.95
1.03
1.00
0.90
0.77
0.64
0.46
0.14
-0.38
-1.10
-1.86
-2.41
-2.54
-2.16
-1.42
-0.59
0.03
0.28
0.19
-0.10
-0.38
-0.56
-0.63
-0.64
-0.63
-0.57
-0.42
-0.17
0.14
0.42
0.54
0.44
0.20
-0.07
-0.22
-0.15
0.11
0.44
0.69
0.78
0.73
0.65
0.64
0.72
0.82
0.85
0.75
0.58
0.41
0.35
0.38
0.42
0.37
0.18
-0.08
-0.32
-0.43
-0.42
-0.35
-0.32
-0.35
-0.43
-0.45
-0.36
-0.18
0.02
0.13
0.11
-0.03
-0.22
-0.39
-0.47
-0.43
-0.28
-0.03
0.28
0.58
0.78
0.81
0.64
0.32
-0.04
-0.34
-0.53
-0.59
-0.59
-0.56
-0.49
-0.38
-0.22
-0.04
0.08
0.10
0.02
-0.12
-0.25
-0.31
-0.27
-0.18
-0.04
0.08
0.15
0.14
0.02
-0.19
-0.44
-0.63
-0.66
-0.49
-0.15
0.29
0.71
0.99
1.09
1.01
0.80
0.56
0.38
0.30
0.29
0.32
0.32
0.28
0.22
0.21
0.30
0.48
0.66
0.74
0.63
0.30
-0.17
-0.64
-0.96
-1.02
-0.80
-0.40
0.07
0.47
0.73
0.80
0.72
0.52
0.24
-0.10
-0.48
-0.84
-1.15
-1.31
-1.29
-1.08
-0.73
-0.34
-0.01
0.16
0.17
0.05
-0.10
-0.19
-0.20
-0.15
-0.10
-0.08
-0.10
-0.08
0.01
0.17
0.34
0.38
0.23
-0.09
-0.48
-0.79
-0.91
-0.85
-0.67
-0.45
-0.23
0.02
0.32
0.70
1.11
1.43
1.55
1.41
1.07
0.63
0.25
0.04
0.04
0.20
0.45
0.67
0.77
0.73
0.57
0.35
0.16
0.09
0.15
0.30
0.45
0.49
0.38
0.15
-0.07
-0.14
0.02
0.37
0.78
1.07
1.14
1.00
0.79
0.67
0.74
0.98
1.27
1.46
1.49
1.39
1.29
1.32
1.56
1.94
2.23
2.11
1.26
-0.44
-2.83
-5.54
-8.04
-9.84
-10.62
-10.30
-9.01
-7.01
-4.66
-2.31
-0.30
1.15
1.93
2.11
1.89
1.53
1.22
1.04
1.01
1.07
1.18
1.33
1.49
1.62
1.66
1.54
1.26
0.88
0.51
0.27
0.27
0.50
0.90
1.33
1.66
1.80
1.70
1.41
1.01
0.61
0.26
0.02
-0.11
-0.13
-0.04
0.15
0.40
0.62
0.71
0.61
0.31
-0.11
-0.46
-0.59
-0.40
0.07
0.65
1.14
1.36
1.27
0.92
0.45
0.02
-0.27
-0.36
-0.30
-0.15
0.03
0.20
0.34
0.42
0.43
0.31
0.06
-0.28
-0.61
-0.82
-0.79
-0.53
-0.12
0.32
0.63
0.73
0.63
0.40
0.13
-0.12
-0.33
-0.52
-0.68
-0.79
-0.81
-0.72
-0.51
-0.24
0.03
0.21
0.26
0.18
-0.01
-0.25
-0.47
-0.65
-0.75
-0.75
-0.67
-0.50
-0.24
0.08
0.43
0.72
0.87
0.81
0.55
0.18
-0.18
-0.42
-0.50
-0.45
-0.32
-0.17
-0.03
0.07
0.12
0.13
0.10
0.05
-0.01
-0.07
-0.11
-0.12
-0.10
-0.03
0.09
0.24
0.34
0.35
0.23
0.02
-0.20
-0.32
-0.31
-0.17
0.01
0.16
0.22
0.18
0.11
0.06
0.10
0.19
0.29
0.32
0.24
0.06
-0.15
-0.30
-0.30
-0.15
0.10
0.35
0.52
0.56
0.48
0.31
0.13
0.00
-0.04
0.01
0.16
0.35
0.52
0.60
0.54
0.36
0.09
-0.19
-0.42
-0.59
-0.73
-0.84
-0.91
-0.92
-0.82
-0.62
-0.37
-0.13
0.03
0.08
0.04
-0.09
-0.24
-0.37
-0.44
-0.41
-0.26
-0.03
0.21
0.42
0.53
0.56
0.53
0.47
0.38
0.24
0.02
-0.25
-0.50
-0.63
-0.57
-0.33
0.03
0.39
0.65
0.75
0.69
0.49
0.23
-0.04
-0.26
-0.41
-0.47
-0.47
-0.44
-0.41
-0.38
-0.34
-0.27
-0.14
-0.00
0.11
0.17
0.18
0.19
0.22
0.31
0.45
0.59
0.71
0.76
0.73
0.61
0.37
0.03
-0.36
-0.72
-0.94
-0.93
-0.67
-0.23
0.26
0.65
0.85
0.82
0.62
0.32
-0.01
-0.28
-0.45
-0.47
-0.35
-0.13
0.12
0.30
0.36
0.28
0.09
-0.14
-0.32
-0.40
-0.36
-0.21
0.00
0.23
0.42
0.54
0.58
0.52
0.37
0.14
-0.14
-0.42
-0.61
-0.65
-0.50
-0.21
0.10
0.30
0.32
0.15
-0.14
-0.47
-0.74
-0.89
-0.91
-0.79
-0.57
-0.28
-0.01
0.14
0.15
0.05
-0.03
0.06
0.36
0.82
1.23
1.36
1.08
0.47
-0.25
-0.75
-0.78
-0.32
0.45
1.21
1.64
1.58
1.22
0.71
0.41
0.49
0.91
1.58
2.43
3.42
4.33
4.63
3.63
0.89
-3.31
-7.89
-11.24
-12.09
-10.13
-6.26
-2.06
1.00
2.33
2.25
1.62
1.18
1.10
1.09
0.77
0.06
-0.74
-1.16
-0.91
-0.07
1.07
1.95
2.23
1.79
0.85
-0.22
-0.98
-1.14
-0.66
0.24
1.21
1.87
2.03
1.69
1.03
0.36
-0.06
-0.11
0.20
0.66
1.06
1.21
1.03
0.61
0.11
-0.27
-0.44
-0.38
-0.19
-0.01
0.06
-0.02
-0.22
-0.43
-0.54
-0.47
-0.19
0.24
0.70
1.08
1.24
1.15
0.84
0.39
-0.05
-0.35
-0.44
-0.34
-0.11
0.13
0.33
0.41
0.43
0.45
0.55
0.77
1.11
1.53
1.87
1.91
1.41
0.29
-1.31
-2.93
-4.03
-4.19
-3.38
-1.96
-0.55
0.31
0.40
-0.11
-0.79
-1.21
-1.16
-0.69
-0.03
0.60
1.11
1.48
1.75
1.86
1.68
1.05
-0.05
-1.40
-2.60
-3.23
-3.05
-2.15
-0.88
0.28
0.97
1.13
0.97
0.77
0.75
0.96
1.30
1.64
1.87
1.98
1.94
1.66
1.01
-0.06
-1.40
-2.65
-3.40
-3.32
-2.44
-1.08
0.24
1.11
1.39
1.22
0.83
0.45
0.12
-0.20
-0.55
-0.88
-1.06
-0.96
-0.61
-0.13
0.33
0.61
0.67
0.56
0.37
0.17
0.03
-0.04
-0.04
0.02
0.09
0.14
0.13
0.06
-0.05
-0.14
-0.16
-0.13
-0.08
-0.07
-0.11
-0.15
-0.14
-0.00
0.22
0.46
0.58
0.53
0.31
0.02
-0.23
-0.35
-0.31
-0.15
0.09
0.32
0.48
0.49
0.30
-0.07
-0.52
-0.90
-1.05
-0.89
-0.47
0.08
0.60
0.95
1.06
0.94
0.66
0.29
-0.08
-0.37
-0.50
-0.44
-0.22
0.09
0.40
0.61
0.68
0.59
0.40
0.17
0.00
-0.04
0.07
0.30
0.57
0.76
0.78
0.60
0.28
-0.06
-0.29
-0.37
-0.31
-0.19
-0.09
-0.05
-0.06
-0.05
0.01
0.10
0.15
0.09
-0.12
-0.43
-0.76
-0.96
-0.96
-0.75
-0.40
-0.03
0.25
0.39
0.37
0.26
0.12
0.01
-0.04
-0.02
0.06
0.18
0.31
0.42
0.48
0.46
0.38
0.26
0.15
0.09
0.11
0.19
0.28
0.32
0.27
0.11
-0.12
-0.37
-0.57
-0.68
-0.64
-0.48
-0.22
0.05
0.22
0.21
0.03
-0.26
-0.49
-0.52
-0.28
0.15
0.60
0.92
0.99
0.84
0.54
0.22
-0.06
-0.24
-0.36
-0.40
-0.37
-0.27
-0.11
0.07
0.22
0.29
0.27
0.16
0.01
-0.13
-0.23
-0.27
-0.27
-0.26
-0.28
-0.35
-0.47
-0.59
-0.64
-0.56
-0.31
0.03
0.36
0.54
0.49
0.24
-0.07
-0.25
-0.20
0.07
0.42
0.68
0.71
0.51
0.14
-0.32
-0.79
-1.26
-1.67
-1.96
-2.04
-1.84
-1.39
-0.85
-0.37
-0.08
0.03
0.08
0.19
0.43
0.75
1.07
1.28
1.37
1.37
1.36
1.32
1.21
0.96
0.52
-0.08
-0.68
-1.11
-1.22
-1.00
-0.53
0.01
0.46
0.74
0.87
0.90
0.89
0.84
0.73
0.52
0.25
-0.04
-0.27
-0.43
-0.52
-0.55
-0.53
-0.44
-0.29
-0.13
-0.04
-0.11
-0.35
-0.69
-0.99
-1.10
-0.94
-0.54
-0.03
0.43
0.72
0.80
0.71
0.56
0.46
0.48
0.61
0.81
0.96
0.99
0.87
0.62
0.31
0.01
-0.21
-0.33
-0.35
-0.30
-0.22
-0.13
-0.04
0.04
0.06
-0.00
-0.14
-0.32
-0.43
-0.40
-0.22
0.02
0.20
0.21
0.04
-0.20
-0.37
-0.38
-0.22
-0.02
0.13
0.16
0.10
0.05
0.06
0.14
0.21
0.18
0.02
-0.24
-0.49
-0.61
-0.53
-0.24
0.18
0.60
0.89
0.96
0.81
0.48
0.08
-0.29
-0.50
-0.51
-0.33
-0.01
0.35
0.63
0.78
0.74
0.53
0.17
-0.24
-0.62
-0.87
-0.90
-0.76
-0.55
-0.42
-0.47
-0.70
-0.99
-1.17
-1.10
-0.79
-0.32
0.15
0.45
0.52
0.39
0.14
-0.11
-0.29
-0.35
-0.30
-0.21
-0.14
-0.11
-0.12
-0.10
0.01
0.19
0.39
0.52
0.51
0.37
0.21
0.11
0.17
0.35
0.57
0.73
0.78
0.69
0.53
0.35
0.19
0.07
-0.03
-0.08
-0.06
0.03
0.19
0.36
0.49
0.50
0.37
0.10
-0.26
-0.60
-0.83
-0.88
-0.72
-0.41
-0.05
0.25
0.37
0.27
-0.02
-0.41
-0.79
-1.06
-1.16
-1.06
-0.78
-0.38
0.04
0.36
0.49
0.40
0.18
-0.01
0.00
0.31
0.85
1.41
1.73
1.62
1.14
0.58
0.32
0.62
1.46
2.48
3.20
3.20
2.41
1.21
0.04
-0.57
-0.42
0.33
1.39
2.53
3.65
4.50
4.61
3.27
0.03
-4.81
-10.03
-13.88
-14.91
-12.75
-8.38
-3.56
0.10
1.92
2.30
2.19
2.38
2.91
3.28
2.86
1.51
-0.32
-1.80
-2.25
-1.51
0.14
1.93
3.17
3.47
2.85
1.66
0.38
-0.58
-1.04
-1.03
-0.72
-0.33
-0.03
0.10
0.09
0.05
0.13
0.41
0.87
1.32
1.61
1.68
1.60
1.51
1.44
1.28
0.82
-0.05
-1.21
-2.30
-2.89
-2.73
-1.91
-0.78
0.21
0.80
0.95
0.84
0.65
0.51
0.40
0.28
0.17
0.09
0.12
0.23
0.38
0.52
0.63
0.72
0.78
0.77
0.62
0.25
-0.30
-0.88
-1.28
-1.33
-1.01
-0.47
0.05
0.33
0.28
0.06
-0.18
-0.21
0.01
0.41
0.84
1.20
1.46
1.59
1.50
1.04
0.13
-1.15
-2.48
-3.42
-3.63
-3.06
-2.01
-0.91
-0.13
0.22
0.31
0.37
0.53
0.76
0.86
0.70
0.29
-0.19
-0.49
-0.40
0.11
0.95
1.82
2.42
2.50
1.98
1.01
-0.08
-0.93
-1.24
-1.00
-0.36
0.34
0.81
0.89
0.64
0.26
-0.02
-0.01
0.27
0.72
1.17
1.53
1.77
1.84
1.62
0.97
-0.16
-1.61
-2.99
-3.85
-3.91
-3.20
-2.12
-1.13
-0.55
-0.40
-0.43
-0.38
-0.16
0.15
0.31
0.20
-0.15
-0.52
-0.70
-0.54
-0.09
0.48
0.92
1.04
0.82
0.39
-0.03
-0.27
-0.25
-0.05
0.18
0.28
0.19
-0.05
-0.31
-0.45
-0.35
0.02
0.60
1.22
1.71
1.92
1.80
1.44
0.99
0.60
0.34
0.14
-0.08
-0.34
-0.59
-0.68
-0.52
-0.13
0.35
0.74
0.88
0.73
0.37
-0.05
-0.38
-0.54
-0.52
-0.36
-0.15
0.01
0.02
-0.14
-0.42
-0.71
-0.89
-0.91
-0.77
-0.59
-0.45
-0.40
-0.39
-0.38
-0.29
-0.12
0.08
0.27
0.40
0.44
0.38
0.23
0.03
-0.17
-0.28
-0.27
-0.16
-0.02
0.08
0.07
-0.01
-0.12
-0.20
-0.20
-0.17
-0.11
-0.06
-0.02
0.03
0.05
0.02
-0.12
-0.33
-0.56
-0.70
-0.70
-0.55
-0.33
-0.12
0.03
0.09
0.12
0.17
0.26
0.40
0.56
0.68
0.73
0.69
0.56
0.38
0.20
0.09
0.09
0.17
0.30
0.42
0.49
0.53
0.59
0.68
0.76
0.73
0.52
0.12
-0.37
-0.78
-0.99
-0.97
-0.83
-0.71
-0.73
-0.85
-0.94
-0.85
-0.51
-0.02
0.43
0.66
0.61
0.36
0.11
0.00
0.12
0.38
0.69
0.93
1.04
1.06
1.03
0.97
0.89
0.74
0.49
0.16
-0.21
-0.52
-0.71
-0.77
-0.72
-0.66
-0.65
-0.74
-0.90
-1.08
-1.21
-1.25
-1.19
-1.05
-0.85
-0.60
-0.34
-0.10
0.07
0.18
0.25
0.31
0.40
0.53
0.67
0.76
0.78
0.69
0.53
0.37
0.25
0.24
0.32
0.47
0.64
0.76
0.81
0.80
0.75
0.65
0.52
0.32
0.08
-0.15
-0.28
-0.27
-0.13
0.03
0.09
-0.01
-0.27
-0.55
-0.72
-0.71
-0.55
-0.36
-0.24
-0.23
-0.24
-0.17
0.03
0.34
0.61
0.69
0.50
0.08
-0.42
-0.82
-1.01
-0.94
-0.70
-0.40
-0.14
0.02
0.10
0.12
0.13
0.11
0.05
-0.05
-0.17
-0.25
-0.24
-0.11
0.08
0.23
0.27
0.14
-0.11
-0.41
-0.64
-0.74
-0.71
-0.54
-0.27
0.10
0.51
0.89
1.16
1.21
0.99
0.54
-0.02
-0.51
-0.76
-0.72
-0.43
-0.04
0.29
0.43
0.36
0.14
-0.13
-0.35
-0.47
-0.50
-0.44
-0.31
-0.13
0.10
0.35
0.58
0.73
0.76
0.65
0.43
0.15
-0.07
-0.15
-0.04
0.24
0.57
0.79
0.83
0.69
0.46
0.29
0.26
0.35
0.47
0.49
0.36
0.08
-0.25
-0.55
-0.75
-0.84
-0.84
-0.78
-0.69
-0.58
-0.46
-0.33
-0.20
-0.08
0.03
0.11
0.19
0.26
0.35
0.46
0.57
0.63
0.59
0.42
0.12
-0.22
-0.52
-0.69
-0.73
-0.66
-0.57
-0.51
-0.47
-0.40
-0.25
0.03
0.38
0.70
0.86
0.81
0.54
0.16
-0.23
-0.52
-0.66
-0.63
-0.49
-0.27
-0.04
0.14
0.23
0.24
0.20
0.16
0.18
0.29
0.47
0.66
0.78
0.79
0.67
0.45
0.18
-0.09
-0.31
-0.47
-0.57
-0.60
-0.55
-0.43
-0.26
-0.08
0.05
0.08
0.03
-0.06
-0.12
-0.07
0.06
0.23
0.36
0.39
0.31
0.12
-0.13
-0.39
-0.62
-0.77
-0.83
-0.77
-0.62
-0.43
-0.29
-0.25
-0.33
-0.49
-0.63
-0.66
-0.54
-0.28
0.05
0.35
0.53
0.56
0.45
0.26
0.06
-0.06
-0.08
0.04
0.24
0.47
0.64
0.69
0.58
0.33
0.01
-0.31
-0.53
-0.59
-0.44
-0.09
0.41
0.97
1.46
1.73
1.69
1.36
0.82
0.27
-0.15
-0.37
-0.41
-0.39
-0.39
-0.43
-0.46
-0.45
-0.38
-0.33
-0.35
-0.45
-0.56
-0.54
-0.32
0.05
0.43
0.62
0.51
0.15
-0.32
-0.71
-0.93
-0.99
-0.98
-0.94
-0.86
-0.70
-0.42
-0.05
0.30
0.52
0.56
0.47
0.34
0.24
0.21
0.22
0.25
0.29
0.35
0.42
0.45
0.33
0.02
-0.42
-0.81
-0.99
-0.85
-0.48
-0.04
0.25
0.30
0.16
-0.03
-0.13
-0.06
0.12
0.34
0.52
0.61
0.64
0.61
0.54
0.43
0.33
0.25
0.22
0.26
0.33
0.37
0.36
0.25
0.05
-0.20
-0.44
-0.60
-0.64
-0.56
-0.41
-0.25
-0.14
-0.10
-0.11
-0.13
-0.11
-0.05
0.05
0.14
0.22
0.28
0.36
0.44
0.53
0.60
0.62
0.57
0.42
0.18
-0.13
-0.45
-0.69
-0.78
-0.68
-0.44
-0.12
0.16
0.29
0.25
0.04
-0.25
-0.52
-0.65
-0.60
-0.40
-0.13
0.11
0.22
0.17
0.00
-0.19
-0.32
-0.33
-0.24
-0.09
0.05
0.16
0.22
0.25
0.26
0.23
0.16
0.07
-0.01
-0.04
-0.00
0.08
0.18
0.24
0.24
0.18
0.07
-0.06
-0.20
-0.30
-0.34
-0.27
-0.10
0.13
0.33
0.41
0.33
0.15
-0.06
-0.20
-0.21
-0.10
0.05
0.16
0.17
0.11
0.02
-0.04
-0.04
-0.03
-0.07
-0.18
-0.33
-0.42
-0.36
-0.11
0.25
0.58
0.73
0.63
0.32
-0.07
-0.38
-0.51
-0.43
-0.20
0.11
0.39
0.60
0.68
0.62
0.43
0.17
-0.09
-0.28
-0.36
-0.35
-0.29
-0.27
-0.30
-0.35
-0.32
-0.16
0.13
0.46
0.67
0.65
0.37
-0.10
-0.63
-1.08
-1.36
-1.41
-1.24
-0.88
-0.41
0.11
0.57
0.86
0.94
0.82
0.59
0.37
0.28
0.34
0.52
0.72
0.85
0.84
0.68
0.43
0.14
-0.11
-0.30
-0.40
-0.42
-0.39
-0.32
-0.22
-0.13
-0.06
-0.02
-0.02
-0.04
-0.08
-0.13
-0.17
-0.18
-0.16
-0.11
-0.07
-0.05
-0.05
-0.07
-0.06
0.00
0.14
0.30
0.40
0.39
0.24
-0.01
-0.28
-0.48
-0.58
-0.59
-0.57
-0.55
-0.57
-0.61
-0.64
-0.64
-0.59
-0.49
-0.34
-0.14
0.09
0.31
0.47
0.55
0.55
0.50
0.48
0.51
0.58
0.65
0.65
0.54
0.35
0.15
-0.01
-0.08
-0.07
-0.01
0.07
0.12
0.14
0.11
0.07
0.05
0.09
0.21
0.42
0.64
0.79
0.79
0.61
0.34
0.06
-0.09
-0.09
0.03
0.18
0.27
0.22
0.04
-0.23
-0.51
-0.71
-0.79
-0.77
-0.66
-0.52
-0.39
-0.27
-0.19
-0.14
-0.16
-0.27
-0.43
-0.60
-0.70
-0.69
-0.59
-0.47
-0.39
-0.36
-0.34
-0.27
-0.15
-0.03
-0.00
-0.11
-0.32
-0.53
-0.63
-0.58
-0.45
-0.34
-0.32
-0.35
-0.32
-0.14
0.22
0.67
1.04
1.21
1.11
0.80
0.40
0.07
-0.07
0.01
0.30
0.71
1.10
1.34
1.35
1.11
0.70
0.25
-0.12
-0.34
-0.41
-0.39
-0.32
-0.26
-0.23
-0.22
-0.24
-0.26
-0.22
-0.07
0.17
0.45
0.68
0.77
0.72
0.61
0.54
0.56
0.63
0.63
0.45
0.08
-0.38
-0.73
-0.85
-0.70
-0.35
0.02
0.27
0.30
0.09
-0.30
-0.73
-1.07
-1.22
-1.14
-0.88
-0.54
-0.19
0.11
0.36
0.58
0.73
0.75
0.61
0.30
-0.08
-0.41
-0.57
-0.49
-0.19
0.24
0.70
1.08
1.30
1.31
1.09
0.68
0.17
-0.34
-0.74
-0.95
-0.95
-0.76
-0.44
-0.11
0.13
0.16
-0.04
-0.42
-0.84
-1.17
-1.30
-1.24
-1.08
-0.91
-0.80
-0.75
-0.68
-0.55
-0.34
-0.08
0.16
0.36
0.49
0.58
0.65
0.73
0.81
0.85
0.83
0.77
0.68
0.62
0.59
0.60
0.62
0.60
0.49
0.30
0.05
-0.20
-0.37
-0.42
-0.35
-0.23
-0.12
-0.09
-0.12
-0.16
-0.15
-0.07
0.06
0.16
0.21
0.23
0.29
0.45
0.66
0.80
0.75
0.44
-0.05
-0.54
-0.85
-0.86
-0.62
-0.27
0.03
0.20
0.24
0.21
0.17
0.15
0.11
0.03
-0.12
-0.31
-0.48
-0.57
-0.53
-0.36
-0.12
0.10
0.23
0.25
0.21
0.19
0.23
0.34
0.42
0.40
0.24
0.00
-0.20
-0.29
-0.24
-0.12
-0.03
-0.05
-0.14
-0.25
-0.29
-0.24
-0.16
-0.11
-0.14
-0.25
-0.35
-0.38
-0.29
-0.12
0.08
0.23
0.33
0.41
0.49
0.60
0.70
0.71
0.57
0.26
-0.18
-0.64
-0.99
-1.14
-1.07
-0.85
-0.58
-0.35
-0.19
-0.12
-0.10
-0.09
-0.09
-0.11
-0.20
-0.35
-0.54
-0.69
-0.73
-0.61
-0.34
0.04
0.42
0.70
0.83
0.78
0.60
0.36
0.15
0.03
0.02
0.08
0.14
0.17
0.14
0.08
0.04
0.03
0.03
-0.00
-0.09
-0.21
-0.31
-0.32
-0.22
-0.05
0.09
0.15
0.14
0.12
0.16
0.27
0.39
0.41
0.28
0.04
-0.21
-0.33
-0.27
-0.08
0.12
0.28
0.38
0.52
0.75
1.06
1.35
1.43
1.23
0.77
0.24
-0.17
-0.35
-0.33
-0.28
-0.34
-0.54
-0.81
-0.97
-0.88
-0.54
-0.08
0.32
0.53
0.52
0.36
0.18
0.11
0.15
0.28
0.38
0.38
0.24
0.00
-0.27
-0.52
-0.72
-0.87
-0.97
-1.04
-1.04
-0.94
-0.72
-0.41
-0.08
0.20
0.38
0.44
0.41
0.33
0.23
0.12
0.02
-0.08
-0.18
-0.26
-0.28
-0.23
-0.08
0.13
0.33
0.47
0.49
0.41
0.26
0.11
0.00
-0.06
-0.06
-0.02
0.11
0.35
0.68
1.00
1.21
1.19
0.92
0.48
-0.01
-0.43
-0.69
-0.81
-0.82
-0.75
-0.61
-0.38
-0.07
0.24
0.46
0.49
0.28
-0.08
-0.45
-0.65
-0.61
-0.33
0.04
0.35
0.50
0.50
0.41
0.32
0.25
0.18
0.06
-0.10
-0.24
-0.29
-0.23
-0.10
0.02
0.02
-0.11
-0.30
-0.48
-0.59
-0.60
-0.57
-0.52
-0.46
-0.36
-0.21
-0.03
0.12
0.19
0.12
-0.07
-0.32
-0.54
-0.65
-0.60
-0.40
-0.12
0.15
0.32
0.32
0.19
-0.01
-0.17
-0.23
-0.16
-0.01
0.13
0.23
0.29
0.33
0.41
0.49
0.51
0.40
0.15
-0.19
-0.48
-0.60
-0.48
-0.16
0.25
0.60
0.82
0.84
0.70
0.42
0.09
-0.20
-0.35
-0.30
-0.05
0.31
0.66
0.88
0.87
0.65
0.28
-0.18
-0.62
-0.98
-1.20
-1.24
-1.12
-0.86
-0.53
-0.19
0.11
0.37
0.58
0.75
0.85
0.85
0.75
0.58
0.40
0.27
0.20
0.17
0.10
-0.03
-0.20
-0.37
-0.46
-0.46
-0.39
-0.33
-0.34
-0.41
-0.51
-0.54
-0.43
-0.16
0.19
0.53
0.71
0.69
0.49
0.18
-0.09
-0.26
-0.30
-0.26
-0.15
0.02
0.27
0.61
0.97
1.23
1.22
0.90
0.32
-0.32
-0.78
-0.93
-0.74
-0.32
0.16
0.54
0.74
0.70
0.45
0.05
-0.40
-0.78
-0.95
-0.87
-0.56
-0.17
0.14
0.26
0.17
-0.05
-0.25
-0.34
-0.25
-0.03
0.28
0.57
0.80
0.90
0.82
0.57
0.15
-0.32
-0.73
-0.94
-0.88
-0.58
-0.15
0.24
0.46
0.45
0.23
-0.09
-0.41
-0.66
-0.80
-0.84
-0.76
-0.58
-0.33
-0.08
0.12
0.21
0.16
0.02
-0.14
-0.23
-0.20
-0.05
0.20
0.47
0.66
0.72
0.61
0.39
0.17
0.08
0.19
0.47
0.78
0.95
0.87
0.57
0.16
-0.22
-0.46
-0.57
-0.60
-0.61
-0.59
-0.54
-0.46
-0.38
-0.40
-0.57
-0.86
-1.13
-1.25
-1.12
-0.80
-0.43
-0.14
0.01
0.09
0.19
0.41
0.73
1.06
1.30
1.39
1.35
1.23
1.07
0.85
0.56
0.21
-0.11
-0.32
-0.34
-0.19
0.04
0.21
0.26
0.19
0.07
-0.00
-0.00
0.04
0.07
0.04
-0.04
-0.17
-0.31
-0.46
-0.59
-0.69
-0.71
-0.63
-0.45
-0.24
-0.07
0.02
0.02
-0.04
-0.10
-0.13
-0.12
-0.08
0.02
0.16
0.35
0.52
0.60
0.53
0.30
-0.01
-0.30
-0.48
-0.49
-0.34
-0.11
0.15
0.37
0.54
0.66
0.71
0.70
0.60
0.42
0.21
0.00
-0.15
-0.24
-0.28
-0.31
-0.39
-0.49
-0.61
-0.69
-0.74
-0.76
-0.81
-0.91
-1.01
-1.08
-1.02
-0.83
-0.52
-0.17
0.14
0.36
0.44
0.39
0.24
0.06
-0.07
-0.08
0.05
0.32
0.63
0.92
1.11
1.16
1.07
0.87
0.62
0.38
0.20
0.13
0.14
0.20
0.22
0.17
0.03
-0.14
-0.27
-0.32
-0.27
-0.15
-0.01
0.09
0.15
0.17
0.18
0.17
0.14
0.08
-0.01
-0.09
-0.15
-0.15
-0.10
-0.06
-0.07
-0.15
-0.32
-0.51
-0.68
-0.75
-0.70
-0.56
-0.37
-0.20
-0.10
-0.09
-0.14
-0.19
-0.16
-0.02
0.21
0.47
0.65
0.70
0.63
0.47
0.30
0.16
0.10
0.10
0.15
0.23
0.30
0.32
0.26
0.11
-0.10
-0.31
-0.49
-0.58
-0.57
-0.45
-0.24
0.04
0.32
0.53
0.58
0.44
0.13
-0.24
-0.56
-0.73
-0.74
-0.65
-0.55
-0.47
-0.39
-0.25
0.01
0.37
0.72
0.95
0.96
0.79
0.51
0.28
0.17
0.22
0.39
0.56
0.68
0.67
0.55
0.36
0.15
0.01
-0.04
0.01
0.11
0.17
0.12
-0.08
-0.39
-0.74
-1.05
-1.25
-1.31
-1.22
-1.01
-0.74
-0.44
-0.15
0.09
0.28
0.42
0.49
0.47
0.32
0.04
-0.33
-0.66
-0.82
-0.71
-0.36
0.13
0.54
0.71
0.60
0.29
-0.08
-0.36
-0.48
-0.42
-0.28
-0.10
0.03
0.07
0.03
-0.09
-0.20
-0.24
-0.16
0.05
0.32
0.56
0.72
0.81
0.87
0.98
1.14
1.29
1.33
1.18
0.87
0.46
0.08
-0.20
-0.36
-0.44
-0.46
-0.44
-0.35
-0.17
0.06
0.28
0.36
0.25
-0.02
-0.34
-0.58
-0.66
-0.59
-0.44
-0.28
-0.13
0.00
0.16
0.34
0.51
0.58
0.49
0.24
-0.14
-0.52
-0.80
-0.90
-0.88
-0.80
-0.76
-0.78
-0.81
-0.79
-0.65
-0.44
-0.24
-0.14
-0.14
-0.15
-0.10
0.06
0.27
0.38
0.32
0.08
-0.23
-0.47
-0.56
-0.54
-0.46
-0.41
-0.36
-0.26
-0.06
0.23
0.50
0.62
0.51
0.22
-0.14
-0.39
-0.44
-0.29
-0.03
0.21
0.35
0.37
0.30
0.21
0.14
0.12
0.10
0.05
-0.04
-0.11
-0.09
0.06
0.36
0.72
1.04
1.23
1.23
1.06
0.79
0.49
0.23
0.05
-0.04
0.01
0.17
0.42
0.66
0.77
0.68
0.40
0.00
-0.39
-0.65
-0.71
-0.57
-0.25
0.18
0.65
1.07
1.36
1.44
1.28
0.91
0.41
-0.12
-0.56
-0.86
-0.99
-0.99
-0.92
-0.84
-0.80
-0.82
-0.88
-0.92
-0.91
-0.81
-0.65
-0.48
-0.34
-0.27
-0.25
-0.22
-0.18
-0.12
-0.08
-0.13
-0.29
-0.56
-0.86
-1.09
-1.16
-1.05
-0.81
-0.53
-0.32
-0.20
-0.14
-0.07
0.10
0.38
0.72
1.04
1.27
1.36
1.35
1.27
1.16
1.01
0.80
0.50
0.17
-0.11
-0.26
-0.22
-0.03
0.26
0.57
0.83
1.03
1.16
1.20
1.17
1.09
0.99
0.94
0.95
1.04
1.18
1.31
1.39
1.42
1.37
1.26
1.13
1.03
0.99
1.02
1.01
0.81
0.25
-0.69
-1.87
-2.98
-3.71
-3.86
-3.47
-2.77
-2.03
-1.48
-1.19
-1.11
-1.11
-1.10
-1.03
-0.94
-0.87
-0.87
-0.96
-1.13
-1.31
-1.46
-1.53
-1.54
-1.47
-1.35
-1.15
-0.85
-0.45
-0.02
0.34
0.51
0.44
0.19
-0.13
-0.35
-0.34
-0.07
0.38
0.86
1.23
1.39
1.34
1.15
0.93
0.81
0.81
0.91
1.03
1.09
1.03
0.89
0.72
0.59
0.54
0.57
0.65
0.78
0.92
1.06
1.17
1.24
1.26
1.22
1.13
1.00
0.86
0.74
0.67
0.63
0.60
0.53
0.40
0.22
0.01
-0.21
-0.46
-0.75
-1.10
-1.49
-1.80
-1.92
-1.78
-1.41
-0.93
-0.53
-0.31
-0.32
-0.47
-0.68
-0.84
-0.88
-0.80
-0.61
-0.39
-0.22
-0.16
-0.25
-0.44
-0.63
-0.72
-0.69
-0.59
-0.52
-0.55
-0.67
-0.80
-0.83
-0.72
-0.50
-0.23
0.02
0.24
0.44
0.64
0.80
0.90
0.92
0.90
0.87
0.87
0.90
0.89
0.78
0.56
0.29
0.06
-0.03
0.08
0.37
0.79
1.22
1.56
1.70
1.64
1.37
1.00
0.62
0.35
0.24
0.30
0.50
0.75
1.01
1.22
1.37
1.43
1.37
1.20
0.90
0.49
0.01
-0.49
-1.00
-1.48
-1.93
-2.33
-2.62
-2.74
-2.66
-2.40
-2.04
-1.70
-1.46
-1.34
-1.29
-1.23
-1.07
-0.81
-0.47
-0.15
0.06
0.14
0.12
0.05
0.02
0.04
0.08
0.07
-0.04
-0.25
-0.50
-0.70
-0.80
-0.77
-0.68
-0.56
-0.42
-0.25
-0.02
0.27
0.58
0.86
1.07
1.18
1.23
1.22
1.15
1.04
0.88
0.72
0.61
0.59
0.64
0.69
0.67
0.52
0.28
0.02
-0.16
-0.18
-0.07
0.13
0.34
0.49
0.56
0.61
0.66
0.75
0.89
1.04
1.19
1.29
1.30
1.20
0.94
0.55
0.08
-0.41
-0.81
-1.07
-1.17
-1.13
-0.97
-0.73
-0.42
-0.10
0.21
0.46
0.60
0.60
0.42
0.06
-0.44
-0.99
-1.43
-1.65
-1.57
-1.26
-0.85
-0.54
-0.41
-0.45
-0.54
-0.52
-0.36
-0.14
-0.01
-0.08
-0.35
-0.70
-0.93
-0.94
-0.70
-0.34
0.00
0.23
0.33
0.39
0.48
0.60
0.69
0.67
0.55
0.38
0.31
0.42
0.73
1.13
1.43
1.52
1.38
1.09
0.80
0.61
0.54
0.57
0.65
0.77
0.93
1.12
1.28
1.31
1.17
0.83
0.39
-0.03
-0.32
-0.41
-0.26
0.06
0.48
0.88
1.17
1.22
0.97
0.35
-0.60
-1.77
-2.94
-3.85
-4.27
-4.09
-3.38
-2.39
-1.43
-0.74
-0.41
-0.34
-0.33
-0.23
0.01
0.31
0.52
0.53
0.35
0.03
-0.31
-0.59
-0.79
-0.91
-0.99
-1.01
-0.96
-0.83
-0.65
-0.46
-0.32
-0.25
-0.23
-0.20
-0.12
0.00
0.12
0.18
0.17
0.16
0.23
0.44
0.79
1.19
1.53
1.72
1.72
1.54
1.27
0.97
0.67
0.37
0.07
-0.20
-0.37
-0.35
-0.07
0.43
1.03
1.53
1.75
1.59
1.10
0.43
-0.19
-0.55
-0.54
-0.21
0.29
0.77
1.10
1.21
1.15
1.01
0.83
0.63
0.36
0.00
-0.40
-0.77
-0.98
-0.97
-0.75
-0.45
-0.17
-0.04
-0.09
-0.28
-0.55
-0.79
-0.94
-1.01
-1.00
-0.96
-0.91
-0.86
-0.79
-0.71
-0.65
-0.61
-0.57
-0.47
-0.28
-0.01
0.26
0.41
0.34
0.05
-0.40
-0.84
-1.15
-1.26
-1.18
-0.96
-0.67
-0.37
-0.08
0.15
0.33
0.43
0.50
0.58
0.72
0.90
1.09
1.22
1.20
1.03
0.73
0.37
0.05
-0.14
-0.15
0.03
0.35
0.72
1.01
1.14
1.06
0.82
0.53
0.30
0.19
0.22
0.34
0.52
0.75
1.00
1.23
1.36
1.32
1.07
0.67
0.21
-0.21
-0.57
-0.90
-1.25
-1.59
-1.83
-1.88
-1.66
-1.25
-0.77
-0.40
-0.25
-0.31
-0.53
-0.78
-0.98
-1.06
-1.02
-0.86
-0.66
-0.50
-0.44
-0.52
-0.68
-0.82
-0.82
-0.66
-0.37
-0.05
0.19
0.30
0.28
0.21
0.16
0.18
0.29
0.44
0.58
0.66
0.62
0.50
0.33
0.17
0.07
0.03
0.04
0.11
0.24
0.41
0.58
0.71
0.73
0.65
0.50
0.38
0.35
0.43
0.53
0.57
0.48
0.28
0.06
-0.09
-0.10
0.02
0.24
0.49
0.75
1.01
1.23
1.36
1.31
1.03
0.55
-0.02
-0.55
-0.90
-1.04
-0.97
-0.77
-0.52
-0.28
-0.07
0.10
0.25
0.35
0.39
0.33
0.15
-0.15
-0.51
-0.86
-1.08
-1.12
-0.99
-0.77
-0.55
-0.38
-0.24
-0.07
0.17
0.47
0.76
0.95
0.95
0.73
0.31
-0.23
-0.80
-1.27
-1.53
-1.50
-1.17
-0.63
-0.05
0.38
0.55
0.43
0.13
-0.20
-0.43
-0.50
-0.43
-0.27
-0.04
0.23
0.51
0.76
0.90
0.88
0.69
0.41
0.15
0.02
0.04
0.15
0.25
0.25
0.17
0.07
0.03
0.13
0.36
0.66
0.96
1.19
1.28
1.22
1.04
0.75
0.42
0.07
-0.27
-0.60
-0.89
-1.09
-1.16
-1.06
-0.79
-0.46
-0.18
-0.07
-0.16
-0.40
-0.68
-0.88
-0.93
-0.83
-0.62
-0.39
-0.24
-0.20
-0.29
-0.44
-0.57
-0.57
-0.42
-0.15
0.12
0.29
0.29
0.12
-0.12
-0.34
-0.48
-0.51
-0.47
-0.39
-0.31
-0.20
-0.05
0.15
0.41
0.64
0.77
0.75
0.62
0.47
0.42
0.54
0.79
1.05
1.16
1.04
0.68
0.22
-0.19
-0.42
-0.45
-0.37
-0.26
-0.23
-0.26
-0.32
-0.33
-0.24
-0.04
0.24
0.51
0.72
0.84
0.90
0.91
0.93
0.95
0.91
0.78
0.52
0.17
-0.16
-0.39
-0.46
-0.39
-0.30
-0.28
-0.37
-0.54
-0.68
-0.73
-0.65
-0.52
-0.43
-0.44
-0.53
-0.63
-0.67
-0.64
-0.55
-0.46
-0.39
-0.31
-0.21
-0.04
0.17
0.39
0.56
0.64
0.60
0.43
0.16
-0.15
-0.44
-0.65
-0.76
-0.77
-0.72
-0.65
-0.61
-0.57
-0.51
-0.38
-0.15
0.14
0.42
0.60
0.61
0.44
0.14
-0.19
-0.44
-0.53
-0.43
-0.17
0.17
0.54
0.85
1.04
1.10
1.06
0.95
0.82
0.69
0.59
0.53
0.53
0.58
0.70
0.83
0.93
0.92
0.74
0.39
-0.09
-0.61
-1.04
-1.26
-1.19
-0.83
-0.29
0.25
0.62
0.69
0.44
-0.01
-0.51
-0.91
-1.12
-1.14
-1.00
-0.77
-0.49
-0.20
0.07
0.25
0.28
0.15
-0.10
-0.39
-0.61
-0.68
-0.59
-0.42
-0.27
-0.23
-0.33
-0.54
-0.79
-0.99
-1.06
-0.97
-0.72
-0.35
0.06
0.42
0.64
0.71
0.66
0.55
0.46
0.44
0.50
0.62
0.76
0.85
0.89
0.87
0.82
0.79
0.81
0.90
1.00
1.06
1.03
0.89
0.68
0.41
0.15
-0.09
-0.24
-0.30
-0.22
-0.05
0.15
0.26
0.22
0.04
-0.19
-0.32
-0.28
-0.08
0.13
0.20
0.04
-0.30
-0.69
-0.93
-0.93
-0.71
-0.38
-0.12
-0.04
-0.14
-0.35
-0.54
-0.62
-0.54
-0.35
-0.14
-0.00
0.01
-0.10
-0.29
-0.49
-0.64
-0.70
-0.68
-0.63
-0.60
-0.59
-0.57
-0.49
-0.29
-0.02
0.25
0.44
0.46
0.34
0.12
-0.11
-0.30
-0.40
-0.39
-0.25
0.04
0.46
0.93
1.33
1.55
1.51
1.26
0.92
0.61
0.44
0.39
0.41
0.40
0.32
0.18
0.05
-0.01
0.03
0.16
0.34
0.55
0.73
0.84
0.85
0.74
0.54
0.29
0.04
-0.17
-0.32
-0.42
-0.45
-0.46
-0.46
-0.49
-0.62
-0.85
-1.16
-1.46
-1.64
-1.60
-1.34
-0.89
-0.37
0.12
0.50
0.71
0.71
0.50
0.10
-0.38
-0.83
-1.10
-1.13
-0.91
-0.55
-0.16
0.16
0.35
0.42
0.40
0.27
0.06
-0.23
-0.51
-0.68
-0.64
-0.35
0.11
0.59
0.95
1.09
1.04
0.86
0.63
0.40
0.18
-0.02
-0.16
-0.20
-0.12
0.07
0.31
0.52
0.61
0.56
0.37
0.13
-0.09
-0.22
-0.23
-0.12
0.07
0.30
0.50
0.64
0.68
0.62
0.47
0.27
0.07
-0.07
-0.10
-0.04
0.08
0.19
0.23
0.18
0.07
-0.04
-0.11
-0.15
-0.19
-0.29
-0.47
-0.68
-0.84
-0.89
-0.82
-0.68
-0.55
-0.51
-0.54
-0.58
-0.53
-0.32
0.02
0.39
0.65
0.71
0.52
0.16
-0.26
-0.59
-0.72
-0.61
-0.30
0.11
0.51
0.74
0.73
0.50
0.13
-0.22
-0.41
-0.39
-0.20
0.03
0.21
0.29
0.32
0.33
0.35
0.39
0.40
0.38
0.35
0.34
0.36
0.37
0.32
0.17
-0.04
-0.25
-0.38
-0.43
-0.43
-0.42
-0.41
-0.39
-0.31
-0.16
0.02
0.19
0.30
0.34
0.35
0.36
0.40
0.47
0.55
0.64
0.73
0.78
0.71
0.48
0.04
-0.55
-1.18
-1.70
-2.00
-2.03
-1.83
-1.46
-1.01
-0.54
-0.11
0.22
0.40
0.42
0.32
0.19
0.13
0.18
0.31
0.49
0.63
0.73
0.79
0.85
0.93
1.03
1.11
1.12
1.04
0.84
0.52
0.10
-0.38
-0.85
-1.22
-1.38
-1.30
-0.98
-0.52
-0.04
0.32
0.47
0.37
0.09
-0.27
-0.59
-0.77
-0.80
-0.70
-0.51
-0.29
-0.08
0.10
0.25
0.32
0.32
0.25
0.19
0.19
0.33
0.60
0.93
1.19
1.23
1.01
0.56
0.03
-0.39
-0.55
-0.42
-0.11
0.23
0.41
0.34
0.03
-0.43
-0.91
-1.30
-1.50
-1.42
-1.03
-0.38
0.38
1.04
1.40
1.36
0.97
0.39
-0.15
-0.48
-0.54
-0.40
-0.16
0.05
0.15
0.14
0.03
-0.13
-0.28
-0.36
-0.30
-0.08
0.25
0.61
0.83
0.81
0.52
0.04
-0.46
-0.78
-0.81
-0.53
-0.07
0.39
0.70
0.80
0.72
0.56
0.39
0.26
0.15
0.02
-0.17
-0.40
-0.63
-0.81
-0.86
-0.76
-0.54
-0.27
-0.03
0.07
0.01
-0.16
-0.34
-0.40
-0.24
0.10
0.49
0.75
0.76
0.49
0.09
-0.25
-0.37
-0.24
0.05
0.31
0.45
0.45
0.39
0.37
0.43
0.51
0.52
0.38
0.13
-0.13
-0.27
-0.25
-0.08
0.12
0.24
0.23
0.10
-0.04
-0.13
-0.14
-0.09
-0.10
-0.23
-0.50
-0.86
-1.18
-1.36
-1.34
-1.14
-0.84
-0.49
-0.16
0.14
0.36
0.44
0.35
0.13
-0.10
-0.20
-0.08
0.24
0.60
0.85
0.90
0.79
0.64
0.54
0.52
0.49
0.37
0.15
-0.15
-0.42
-0.61
-0.68
-0.68
-0.61
-0.51
-0.37
-0.21
-0.03
0.13
0.26
0.34
0.32
0.20
-0.01
-0.23
-0.35
-0.28
-0.01
0.38
0.70
0.81
0.64
0.28
-0.14
-0.47
-0.65
-0.66
-0.57
-0.40
-0.19
0.02
0.19
0.24
0.14
-0.10
-0.37
-0.54
-0.48
-0.20
0.21
0.59
0.80
0.78
0.59
0.32
0.08
-0.10
-0.17
-0.16
-0.06
0.16
0.51
0.93
1.32
1.53
1.41
0.94
0.19
-0.62
-1.29
-1.65
-1.65
-1.37
-0.94
-0.49
-0.13
0.10
0.20
0.17
0.07
-0.07
-0.15
-0.13
0.02
0.25
0.44
0.51
0.40
0.17
-0.06
-0.18
-0.15
-0.00
0.18
0.29
0.29
0.22
0.13
0.10
0.12
0.16
0.17
0.13
0.08
0.05
0.10
0.21
0.34
0.43
0.45
0.40
0.32
0.26
0.23
0.18
0.06
-0.21
-0.60
-1.07
-1.48
-1.74
-1.78
-1.61
-1.31
-0.97
-0.67
-0.41
-0.18
0.05
0.32
0.61
0.86
0.99
0.97
0.77
0.42
0.03
-0.32
-0.55
-0.63
-0.58
-0.47
-0.34
-0.21
-0.06
0.14
0.41
0.69
0.93
1.06
1.08
1.01
0.90
0.81
0.75
0.71
0.66
0.55
0.38
0.16
-0.07
-0.25
-0.33
-0.32
-0.24
-0.11
0.01
0.12
0.19
0.17
0.03
-0.24
-0.59
-0.89
-1.01
-0.88
-0.53
-0.11
0.23
0.40
0.39
0.31
0.22
0.17
0.14
0.12
0.11
0.16
0.26
0.36
0.35
0.16
-0.21
-0.65
-1.00
-1.14
-1.05
-0.81
-0.56
-0.42
-0.40
-0.47
-0.55
-0.58
-0.55
-0.46
-0.34
-0.19
-0.03
0.14
0.29
0.40
0.47
0.48
0.44
0.38
0.31
0.28
0.29
0.36
0.42
0.42
0.32
0.13
-0.07
-0.17
-0.10
0.12
0.37
0.55
0.56
0.41
0.18
-0.04
-0.19
-0.27
-0.28
-0.22
-0.05
0.22
0.53
0.77
0.83
0.69
0.43
0.19
0.06
0.06
0.09
0.09
0.02
-0.08
-0.11
-0.03
0.12
0.27
0.33
0.29
0.20
0.10
0.02
-0.05
-0.14
-0.28
-0.41
-0.47
-0.42
-0.25
-0.01
0.21
0.36
0.36
0.23
-0.02
-0.32
-0.59
-0.77
-0.81
-0.73
-0.53
-0.27
0.00
0.25
0.43
0.50
0.43
0.20
-0.16
-0.58
-0.97
-1.23
-1.27
-1.08
-0.70
-0.26
0.13
0.38
0.46
0.42
0.36
0.35
0.41
0.48
0.48
0.36
0.09
-0.29
-0.70
-1.04
-1.22
-1.19
-0.95
-0.59
-0.22
0.06
0.18
0.17
0.14
0.16
0.27
0.45
0.61
0.69
0.65
0.49
0.28
0.07
-0.08
-0.13
-0.08
0.09
0.33
0.60
0.85
1.03
1.12
1.13
1.08
1.01
0.90
0.76
0.58
0.37
0.14
-0.06
-0.20
-0.28
-0.32
-0.35
-0.36
-0.35
-0.29
-0.19
-0.10
-0.07
-0.13
-0.27
-0.41
-0.50
-0.52
-0.52
-0.54
-0.64
-0.79
-0.94
-1.00
-0.93
-0.76
-0.54
-0.34
-0.21
-0.18
-0.25
-0.39
-0.52
-0.55
-0.44
-0.16
0.19
0.51
0.67
0.64
0.48
0.29
0.18
0.19
0.29
0.42
0.55
0.66
0.76
0.84
0.89
0.86
0.76
0.60
0.42
0.26
0.14
0.06
-0.01
-0.08
-0.17
-0.29
-0.43
-0.54
-0.55
-0.43
-0.19
0.09
0.31
0.38
0.32
0.20
0.12
0.15
0.28
0.43
0.56
0.62
0.62
0.59
0.55
0.49
0.40
0.27
0.09
-0.11
-0.29
-0.45
-0.56
-0.61
-0.59
-0.54
-0.49
-0.50
-0.61
-0.77
-0.92
-0.98
-0.90
-0.71
-0.49
-0.32
-0.26
-0.30
-0.37
-0.39
-0.32
-0.20
-0.08
-0.02
-0.04
-0.11
-0.18
-0.22
-0.22
-0.18
-0.10
0.03
0.20
0.37
0.52
0.58
0.56
0.48
0.39
0.35
0.35
0.38
0.39
0.39
0.39
0.42
0.47
0.49
0.40
0.16
-0.19
-0.51
-0.68
-0.64
-0.40
-0.09
0.16
0.29
0.33
0.37
0.46
0.59
0.69
0.66
0.50
0.26
0.06
-0.03
0.01
0.11
0.19
0.20
0.15
0.07
-0.03
-0.15
-0.30
-0.47
-0.64
-0.77
-0.82
-0.80
-0.74
-0.71
-0.73
-0.77
-0.77
-0.67
-0.44
-0.11
0.22
0.47
0.56
0.49
0.31
0.12
-0.02
-0.05
-0.01
0.08
0.17
0.21
0.19
0.08
-0.08
-0.25
-0.37
-0.41
-0.36
-0.26
-0.17
-0.14
-0.20
-0.30
-0.40
-0.45
-0.44
-0.35
-0.18
0.08
0.41
0.78
1.11
1.31
1.32
1.14
0.83
0.50
0.25
0.13
0.11
0.14
0.14
0.07
-0.05
-0.18
-0.26
-0.26
-0.21
-0.15
-0.14
-0.18
-0.26
-0.31
-0.25
-0.03
0.33
0.74
1.07
1.23
1.14
0.82
0.35
-0.17
-0.58
-0.79
-0.77
-0.56
-0.28
-0.04
0.08
0.04
-0.12
-0.34
-0.57
-0.75
-0.86
-0.88
-0.81
-0.66
-0.46
-0.27
-0.11
-0.00
0.06
0.14
0.27
0.46
0.69
0.89
0.98
0.91
0.69
0.34
-0.05
-0.41
-0.68
-0.84
-0.90
-0.87
-0.78
-0.62
-0.41
-0.16
0.08
0.28
0.41
0.45
0.43
0.38
0.32
0.29
0.29
0.32
0.38
0.48
0.62
0.77
0.88
0.92
0.87
0.78
0.66
0.55
0.44
0.32
0.15
-0.05
-0.26
-0.43
-0.51
-0.49
-0.40
-0.28
-0.15
-0.06
-0.04
-0.10
-0.25
-0.46
-0.66
-0.79
-0.77
-0.61
-0.33
-0.02
0.19
0.23
0.06
-0.28
-0.66
-0.97
-1.13
-1.10
-0.93
-0.69
-0.47
-0.31
-0.21
-0.13
-0.05
0.04
0.15
0.26
0.39
0.58
0.81
1.08
1.28
1.31
1.11
0.67
0.12
-0.41
-0.76
-0.89
-0.80
-0.60
-0.40
-0.25
-0.18
-0.14
-0.06
0.08
0.29
0.50
0.65
0.68
0.59
0.41
0.22
0.07
-0.00
-0.01
-0.01
-0.07
-0.21
-0.42
-0.62
-0.74
-0.71
-0.54
-0.24
0.12
0.48
0.77
0.96
1.01
0.91
0.69
0.38
0.08
-0.10
-0.12
0.02
0.23
0.40
0.43
0.29
0.05
-0.22
-0.43
-0.51
-0.48
-0.36
-0.21
-0.06
0.08
0.20
0.30
0.32
0.20
-0.08
-0.49
-0.89
-1.13
-1.10
-0.79
-0.32
0.14
0.45
0.53
0.43
0.26
0.13
0.11
0.22
0.41
0.59
0.69
0.62
0.37
-0.03
-0.47
-0.80
-0.93
-0.84
-0.61
-0.33
-0.10
0.06
0.19
0.32
0.40
0.37
0.15
-0.25
-0.69
-1.01
-1.08
-0.88
-0.50
-0.10
0.21
0.43
0.60
0.78
0.96
1.08
1.06
0.89
0.63
0.37
0.20
0.14
0.16
0.21
0.24
0.26
0.29
0.34
0.39
0.37
0.23
-0.03
-0.35
-0.63
-0.79
-0.80
-0.69
-0.54
-0.41
-0.34
-0.28
-0.21
-0.09
0.06
0.18
0.23
0.16
0.00
-0.22
-0.48
-0.73
-0.93
-1.03
-1.00
-0.85
-0.64
-0.48
-0.42
-0.44
-0.48
-0.41
-0.21
0.10
0.38
0.50
0.38
0.07
-0.31
-0.60
-0.70
-0.61
-0.39
-0.13
0.14
0.43
0.75
1.10
1.41
1.56
1.47
1.16
0.76
0.47
0.43
0.64
0.95
1.17
1.17
0.94
0.60
0.29
0.13
0.10
0.13
0.14
0.08
-0.03
-0.12
-0.20
-0.27
-0.40
-0.60
-0.86
-1.08
-1.16
-1.01
-0.61
-0.07
0.49
0.91
1.06
0.93
0.56
0.04
-0.50
-0.94
-1.18
-1.15
-0.86
-0.37
0.17
0.60
0.79
0.70
0.40
0.01
-0.31
-0.50
-0.53
-0.48
-0.40
-0.38
-0.42
-0.50
-0.57
-0.55
-0.41
-0.15
0.16
0.44
0.58
0.55
0.36
0.08
-0.19
-0.37
-0.42
-0.35
-0.20
-0.04
0.09
0.16
0.16
0.12
0.09
0.06
0.04
0.02
0.01
0.03
0.11
0.26
0.45
0.60
0.64
0.52
0.27
-0.06
-0.38
-0.63
-0.76
-0.74
-0.54
-0.21
0.21
0.59
0.84
0.87
0.69
0.40
0.10
-0.09
-0.14
-0.09
0.01
0.10
0.16
0.21
0.24
0.28
0.29
0.25
0.11
-0.15
-0.49
-0.86
-1.13
-1.19
-0.98
-0.56
-0.07
0.32
0.48
0.41
0.20
-0.00
-0.10
-0.10
-0.08
-0.14
-0.31
-0.53
-0.69
-0.70
-0.53
-0.23
0.07
0.26
0.31
0.25
0.17
0.17
0.28
0.44
0.56
0.58
0.49
0.35
0.26
0.30
0.41
0.52
0.48
0.26
-0.08
-0.39
-0.55
-0.51
-0.33
-0.12
-0.01
-0.03
-0.12
-0.20
-0.18
-0.04
0.16
0.37
0.52
0.60
0.66
0.76
0.93
1.15
1.39
1.54
1.51
1.25
0.77
0.21
-0.25
-0.42
-0.24
0.21
0.71
1.00
0.94
0.55
0.02
-0.40
-0.50
-0.25
0.21
0.64
0.80
0.59
0.09
-0.48
-0.82
-0.73
-0.21
0.56
1.24
1.51
1.24
0.61
-0.13
-0.61
-0.64
-0.27
0.35
1.09
1.87
2.45
2.32
0.85
-2.31
-6.76
-11.25
-14.11
-14.05
-10.95
-5.93
-0.85
2.70
4.07
3.76
2.82
2.16
2.04
2.14
1.99
1.39
0.56
-0.02
-0.03
0.52
1.46
2.26
2.59
2.31
1.56
0.66
-0.05
-0.36
-0.25
0.08
0.39
0.50
0.40
0.19
0.04
0.03
0.18
0.40
0.58
0.63
0.49
0.20
-0.16
-0.45
-0.54
-0.37
0.02
0.52
0.95
1.17
1.14
0.89
0.52
0.12
-0.24
-0.49
-0.60
-0.56
-0.37
-0.07
0.28
0.60
0.82
0.91
0.84
0.66
0.44
0.28
0.22
0.27
0.37
0.45
0.43
0.28
0.05
-0.19
-0.39
-0.52
-0.58
-0.59
-0.56
-0.48
-0.34
-0.17
0.01
0.15
0.20
0.14
-0.01
-0.18
-0.27
-0.19
0.10
0.54
0.98
1.28
1.32
1.10
0.73
0.35
0.09
0.01
0.09
0.24
0.38
0.41
0.29
0.04
-0.27
-0.52
-0.61
-0.52
-0.30
-0.06
0.12
0.20
0.21
0.20
0.18
0.12
-0.02
-0.28
-0.63
-0.99
-1.28
-1.43
-1.46
-1.44
-1.45
-1.55
-1.73
-1.89
-1.92
-1.74
-1.37
-0.90
-0.47
-0.17
-0.01
0.05
0.11
0.18
0.22
0.16
0.00
-0.16
-0.19
0.02
0.45
0.94
1.27
1.32
1.11
0.81
0.61
0.61
0.79
0.98
1.06
0.96
0.70
0.39
0.11
-0.10
-0.24
-0.32
-0.32
-0.26
-0.14
0.02
0.18
0.33
0.46
0.59
0.69
0.75
0.71
0.57
0.40
0.27
0.26
0.37
0.52
0.57
0.42
0.05
-0.44
-0.87
-1.09
-1.03
-0.71
-0.29
0.08
0.29
0.30
0.15
-0.12
-0.42
-0.70
-0.89
-0.94
-0.82
-0.55
-0.19
0.17
0.43
0.55
0.52
0.37
0.15
-0.08
-0.27
-0.37
-0.36
-0.23
-0.04
0.18
0.37
0.53
0.66
0.79
0.88
0.89
0.76
0.48
0.07
-0.38
-0.77
-1.00
-1.05
-0.96
-0.78
-0.57
-0.36
-0.14
0.08
0.30
0.48
0.57
0.57
0.48
0.35
0.23
0.14
0.09
0.03
-0.06
-0.15
-0.23
-0.23
-0.15
0.00
0.17
0.29
0.31
0.24
0.13
0.07
0.10
0.20
0.30
0.32
0.23
0.04
-0.19
-0.38
-0.52
-0.61
-0.66
-0.65
-0.58
-0.42
-0.22
-0.06
0.01
-0.03
-0.11
-0.14
-0.05
0.16
0.39
0.56
0.59
0.50
0.31
0.09
-0.14
-0.36
-0.55
-0.69
-0.75
-0.70
-0.56
-0.37
-0.18
-0.03
0.11
0.26
0.40
0.54
0.63
0.65
0.60
0.51
0.45
0.43
0.45
0.50
0.53
0.52
0.46
0.38
0.29
0.22
0.18
0.20
0.23
0.23
0.15
-0.04
-0.32
-0.61
-0.81
-0.86
-0.71
-0.39
0.00
0.37
0.62
0.71
0.63
0.43
0.21
0.04
-0.01
0.06
0.23
0.43
0.59
0.61
0.46
0.14
-0.28
-0.69
-0.98
-1.06
-0.93
-0.65
-0.33
-0.09
0.04
0.05
-0.03
-0.17
-0.33
-0.47
-0.56
-0.58
-0.52
-0.44
-0.36
-0.31
-0.30
-0.27
-0.19
-0.08
0.04
0.09
0.06
-0.03
-0.13
-0.18
-0.16
-0.08
0.01
0.11
0.23
0.38
0.57
0.77
0.92
0.97
0.88
0.69
0.46
0.29
0.20
0.18
0.15
0.08
-0.04
-0.15
-0.21
-0.21
-0.18
-0.21
-0.32
-0.48
-0.59
-0.56
-0.38
-0.13
0.05
0.03
-0.22
-0.61
-1.00
-1.25
-1.27
-1.07
-0.69
-0.23
0.22
0.58
0.83
0.96
0.99
0.96
0.88
0.75
0.56
0.33
0.13
0.03
0.11
0.37
0.73
1.05
1.18
1.02
0.62
0.10
-0.34
-0.56
-0.51
-0.27
-0.01
0.09
-0.03
-0.34
-0.71
-0.99
-1.12
-1.11
-1.05
-1.00
-0.97
-0.91
-0.75
-0.48
-0.15
0.13
0.30
0.35
0.34
0.34
0.39
0.46
0.49
0.43
0.29
0.15
0.12
0.25
0.49
0.72
0.82
0.69
0.37
-0.04
-0.38
-0.54
-0.52
-0.36
-0.17
-0.01
0.10
0.19
0.28
0.33
0.31
0.18
-0.04
-0.27
-0.41
-0.42
-0.31
-0.17
-0.08
-0.07
-0.10
-0.11
-0.05
0.05
0.11
0.10
0.02
-0.07
-0.08
0.01
0.18
0.35
0.44
0.43
0.36
0.27
0.22
0.20
0.17
0.08
-0.07
-0.23
-0.34
-0.35
-0.27
-0.13
0.01
0.15
0.32
0.54
0.83
1.11
1.27
1.22
0.92
0.44
-0.09
-0.53
-0.80
-0.89
-0.85
-0.74
-0.61
-0.48
-0.38
-0.33
-0.37
-0.50
-0.67
-0.81
-0.85
-0.75
-0.54
-0.29
-0.07
0.06
0.10
0.09
0.04
-0.02
-0.09
-0.15
-0.16
-0.05
0.21
0.59
1.01
1.35
1.50
1.41
1.13
0.78
0.48
0.27
0.17
0.14
0.12
0.09
0.03
-0.05
-0.13
-0.20
-0.22
-0.18
-0.07
0.11
0.30
0.45
0.51
0.44
0.24
-0.04
-0.38
-0.73
-1.08
-1.39
-1.62
-1.72
-1.67
-1.48
-1.17
-0.82
-0.50
-0.29
-0.20
-0.22
-0.26
-0.26
-0.18
-0.02
0.18
0.34
0.41
0.37
0.25
0.11
0.02
0.04
0.16
0.37
0.59
0.71
0.69
0.52
0.26
0.01
-0.19
-0.29
-0.34
-0.36
-0.35
-0.28
-0.12
0.14
0.44
0.69
0.79
0.72
0.48
0.16
-0.17
-0.43
-0.56
-0.52
-0.31
-0.00
0.33
0.57
0.63
0.51
0.28
0.05
-0.07
-0.05
0.06
0.18
0.22
0.19
0.13
0.14
0.25
0.41
0.54
0.55
0.41
0.17
-0.09
-0.29
-0.40
-0.43
-0.41
-0.36
-0.29
-0.21
-0.16
-0.16
-0.22
-0.30
-0.29
-0.13
0.22
0.67
1.07
1.25
1.15
0.81
0.37
0.02
-0.11
-0.01
0.24
0.50
0.64
0.59
0.34
0.01
-0.31
-0.52
-0.60
-0.60
-0.55
-0.41
-0.13
0.32
0.81
1.04
0.73
-0.21
-1.56
-2.82
-3.47
-3.26
-2.31
-1.08
-0.06
0.47
0.54
0.42
0.38
0.53
0.77
0.92
0.85
0.58
0.26
0.06
0.06
0.29
0.60
0.82
0.84
0.67
0.42
0.20
0.09
0.07
0.02
-0.14
-0.40
-0.71
-0.94
-1.00
-0.88
-0.62
-0.27
0.08
0.39
0.59
0.63
0.47
0.11
-0.35
-0.79
-1.05
-1.08
-0.89
-0.60
-0.30
-0.04
0.19
0.42
0.65
0.83
0.87
0.74
0.47
0.20
0.05
0.08
0.22
0.33
0.29
0.09
-0.15
-0.25
-0.09
0.32
0.82
1.22
1.39
1.29
1.05
0.79
0.60
0.43
0.19
-0.20
-0.72
-1.23
-1.52
-1.45
-1.04
-0.39
0.24
0.66
0.78
0.61
0.29
-0.06
-0.34
-0.52
-0.60
-0.63
-0.57
-0.42
-0.17
0.11
0.34
0.40
0.23
-0.11
-0.46
-0.68
-0.65
-0.43
-0.14
0.08
0.17
0.18
0.24
0.40
0.63
0.80
0.75
0.47
0.06
-0.28
-0.39
-0.23
0.09
0.37
0.46
0.33
0.07
-0.20
-0.38
-0.50
-0.62
-0.81
-1.03
-1.17
-1.10
-0.75
-0.21
0.36
0.74
0.85
0.73
0.54
0.44
0.51
0.72
0.94
1.03
0.91
0.59
0.13
-0.34
-0.72
-0.93
-0.94
-0.77
-0.47
-0.13
0.18
0.37
0.41
0.29
0.04
-0.25
-0.53
-0.70
-0.70
-0.53
-0.23
0.10
0.38
0.53
0.53
0.38
0.13
-0.12
-0.32
-0.37
-0.25
0.01
0.33
0.58
0.69
0.63
0.44
0.20
-0.03
-0.17
-0.22
-0.17
-0.07
0.04
0.08
-0.02
-0.24
-0.51
-0.70
-0.68
-0.41
0.03
0.51
0.88
1.09
1.11
1.00
0.79
0.51
0.17
-0.17
-0.44
-0.58
-0.55
-0.41
-0.26
-0.22
-0.33
-0.54
-0.75
-0.84
-0.73
-0.47
-0.14
0.13
0.25
0.21
0.05
-0.14
-0.24
-0.22
-0.09
0.10
0.26
0.33
0.32
0.26
0.20
0.16
0.11
0.02
-0.12
-0.25
-0.32
-0.29
-0.17
-0.02
0.07
0.07
-0.01
-0.12
-0.17
-0.12
0.03
0.24
0.45
0.63
0.73
0.76
0.73
0.65
0.52
0.36
0.15
-0.10
-0.36
-0.58
-0.72
-0.74
-0.67
-0.56
-0.47
-0.45
-0.47
-0.47
-0.39
-0.17
0.13
0.43
0.58
0.53
0.28
-0.06
-0.35
-0.50
-0.50
-0.39
-0.25
-0.13
-0.02
0.12
0.30
0.53
0.78
1.02
1.22
1.37
1.39
1.26
0.95
0.56
0.24
0.12
0.23
0.45
0.54
0.31
-0.20
-0.82
-1.23
-1.20
-0.73
-0.02
0.69
1.24
1.52
1.44
0.84
-0.37
-2.11
-3.96
-5.32
-5.66
-4.83
-3.18
-1.35
0.07
0.86
1.19
1.42
1.77
2.13
2.25
1.93
1.25
0.58
0.31
0.60
1.27
1.98
2.28
2.02
1.33
0.57
0.12
0.15
0.58
1.08
1.31
1.04
0.34
-0.51
-1.06
-0.94
-0.05
1.37
2.78
3.56
3.29
2.07
0.37
-1.11
-1.73
-1.29
0.04
1.97
4.26
6.54
8.05
7.59
4.08
-2.62
-11.16
-18.83
-22.75
-21.39
-15.37
-7.24
-0.09
4.04
4.99
4.12
3.16
3.07
3.62
3.91
3.23
1.66
-0.03
-0.94
-0.65
0.69
2.34
3.41
3.42
2.42
0.97
-0.20
-0.53
0.09
1.28
2.39
2.86
2.47
1.42
0.25
-0.50
-0.52
0.14
1.09
1.79
1.85
1.25
0.19
-0.84
-1.41
-1.30
-0.53
0.68
2.03
3.07
3.31
2.35
0.08
-3.09
-6.28
-8.43
-8.77
-7.24
-4.47
-1.51
0.74
1.89
2.13
1.94
1.75
1.67
1.60
1.38
1.00
0.62
0.42
0.47
0.68
0.96
1.12
1.10
0.89
0.56
0.19
-0.12
-0.29
-0.26
-0.04
0.27
0.55
0.72
0.76
0.72
0.69
0.72
0.76
0.74
0.54
0.14
-0.32
-0.72
-0.86
-0.68
-0.23
0.36
0.95
1.42
1.68
1.58
0.98
-0.13
-1.58
-2.97
-3.81
-3.81
-3.00
-1.77
-0.65
-0.03
0.00
-0.31
-0.60
-0.64
-0.39
-0.02
0.27
0.39
0.39
0.37
0.42
0.58
0.82
1.02
1.09
0.98
0.69
0.31
-0.03
-0.22
-0.19
0.05
0.41
0.77
1.03
1.09
0.93
0.60
0.20
-0.13
-0.27
-0.17
0.11
0.43
0.65
0.68
0.54
0.28
-0.01
-0.25
-0.41
-0.46
-0.41
-0.29
-0.14
-0.06
-0.10
-0.27
-0.55
-0.83
-0.98
-0.93
-0.66
-0.24
0.21
0.59
0.83
0.91
0.88
0.77
0.63
0.44
0.20
-0.07
-0.30
-0.44
-0.44
-0.32
-0.16
-0.04
-0.01
-0.02
-0.01
0.04
0.13
0.17
0.08
-0.15
-0.47
-0.76
-0.91
-0.87
-0.67
-0.34
0.04
0.42
0.77
1.06
1.24
1.29
1.20
0.98
0.69
0.37
0.10
-0.09
-0.20
-0.23
-0.23
-0.23
-0.26
-0.32
-0.37
-0.38
-0.31
-0.19
-0.07
-0.04
-0.16
-0.44
-0.78
-1.04
-1.10
-0.92
-0.57
-0.19
0.08
0.17
0.12
0.03
-0.01
0.04
0.16
0.32
0.49
0.66
0.83
0.97
1.05
1.02
0.90
0.69
0.47
0.28
0.16
0.12
0.13
0.16
0.15
0.11
0.03
-0.05
-0.11
-0.13
-0.12
-0.13
-0.15
-0.22
-0.30
-0.39
-0.48
-0.60
-0.72
-0.81
-0.82
-0.76
-0.66
-0.61
-0.65
-0.76
-0.83
-0.78
-0.55
-0.21
0.12
0.30
0.27
0.09
-0.09
-0.13
0.05
0.38
0.76
1.04
1.13
1.05
0.84
0.64
0.54
0.55
0.68
0.89
1.12
1.31
1.36
1.16
0.63
-0.22
-1.25
-2.20
-2.83
-3.01
-2.76
-2.22
-1.60
-1.05
-0.64
-0.34
-0.11
0.07
0.20
0.26
0.27
0.26
0.29
0.36
0.47
0.59
0.64
0.57
0.39
0.14
-0.10
-0.26
-0.29
-0.23
-0.13
-0.04
0.01
0.06
0.16
0.34
0.58
0.81
0.95
0.94
0.81
0.63
0.47
0.38
0.36
0.33
0.27
0.16
0.04
-0.02
0.03
0.23
0.55
0.87
1.09
1.08
0.80
0.32
-0.22
-0.65
-0.86
-0.85
-0.69
-0.50
-0.35
-0.25
-0.20
-0.16
-0.13
-0.12
-0.13
-0.15
-0.17
-0.16
-0.18
-0.24
-0.36
-0.51
-0.62
-0.65
-0.57
-0.43
-0.30
-0.25
-0.27
-0.35
-0.44
-0.49
-0.50
-0.47
-0.41
-0.29
-0.10
0.16
0.47
0.75
0.96
1.08
1.12
1.10
1.03
0.91
0.75
0.60
0.51
0.51
0.60
0.71
0.74
0.59
0.25
-0.21
-0.62
-0.85
-0.82
-0.58
-0.28
-0.11
-0.17
-0.42
-0.74
-0.95
-0.96
-0.81
-0.64
-0.55
-0.56
-0.58
-0.47
-0.20
0.18
0.48
0.55
0.36
0.03
-0.25
-0.37
-0.32
-0.19
-0.09
-0.04
0.02
0.16
0.40
0.64
0.75
0.64
0.35
0.04
-0.14
-0.08
0.17
0.47
0.65
0.62
0.40
0.10
-0.15
-0.20
-0.03
0.32
0.75
1.11
1.26
1.12
0.75
0.23
-0.29
-0.70
-0.97
-1.10
-1.11
-1.03
-0.87
-0.63
-0.35
-0.09
0.09
0.15
0.09
-0.04
-0.17
-0.24
-0.22
-0.14
-0.05
-0.02
-0.05
-0.14
-0.23
-0.23
-0.12
0.08
0.29
0.43
0.47
0.46
0.46
0.53
0.66
0.75
0.70
0.46
0.09
-0.30
-0.56
-0.62
-0.47
-0.21
0.04
0.23
0.34
0.39
0.44
0.54
0.69
0.82
0.87
0.77
0.54
0.20
-0.15
-0.41
-0.52
-0.45
-0.23
0.10
0.40
0.58
0.58
0.45
0.31
0.39
0.81
1.49
2.18
2.48
2.13
1.10
-0.20
-1.38
-1.95
-1.77
-1.01
0.08
1.31
2.61
3.78
4.29
3.37
0.54
-4.00
-9.07
-12.94
-14.15
-12.29
-8.21
-3.56
0.07
1.97
2.37
2.14
2.03
2.28
2.59
2.56
2.02
1.22
0.61
0.56
1.09
2.04
2.88
3.23
2.91
2.03
0.91
-0.04
-0.53
-0.47
0.01
0.60
1.02
1.06
0.71
0.15
-0.35
-0.57
-0.43
-0.04
0.32
0.44
0.21
-0.25
-0.74
-1.02
-1.01
-0.75
-0.40
-0.13
-0.06
-0.20
-0.47
-0.73
-0.84
-0.71
-0.39
-0.01
0.27
0.31
0.08
-0.34
-0.76
-0.97
-0.88
-0.50
0.07
0.62
1.00
1.11
0.97
0.70
0.47
0.41
0.57
0.88
1.20
1.41
1.45
1.36
1.20
1.04
0.90
0.78
0.67
0.57
0.53
0.56
0.65
0.72
0.65
0.39
-0.04
-0.54
-1.00
-1.30
-1.44
-1.45
-1.38
-1.24
-1.02
-0.69
-0.27
0.15
0.42
0.45
0.22
-0.19
-0.62
-0.93
-1.08
-1.06
-0.95
-0.81
-0.68
-0.60
-0.57
-0.60
-0.67
-0.74
-0.78
-0.73
-0.58
-0.33
-0.01
0.31
0.55
0.67
0.62
0.42
0.14
-0.10
-0.20
-0.10
0.19
0.61
1.07
1.44
1.66
1.70
1.59
1.39
1.17
1.02
0.95
0.94
0.91
0.78
0.52
0.13
-0.33
-0.80
-1.18
-1.42
-1.51
-1.45
-1.29
-1.11
-0.96
-0.81
-0.63
-0.41
-0.14
0.11
0.27
0.29
0.17
-0.03
-0.21
-0.29
-0.24
-0.07
0.18
0.45
0.66
0.73
0.63
0.39
0.12
-0.03
0.00
0.21
0.44
0.53
0.39
0.07
-0.25
-0.34
-0.09
0.44
1.03
1.46
1.56
1.38
1.05
0.74
0.54
0.45
0.39
0.34
0.30
0.29
0.34
0.40
0.36
0.10
-0.43
-1.14
-1.86
-2.40
-2.64
-2.55
-2.23
-1.82
-1.44
-1.15
-0.93
-0.72
-0.46
-0.17
0.09
0.23
0.17
-0.06
-0.32
-0.48
-0.45
-0.24
0.04
0.24
0.28
0.17
-0.00
-0.14
-0.19
-0.15
-0.05
0.09
0.24
0.40
0.54
0.63
0.65
0.61
0.58
0.61
0.72
0.87
0.98
0.97
0.85
0.65
0.48
0.42
0.48
0.61
0.74
0.80
0.75
0.59
0.37
0.14
-0.05
-0.17
-0.23
-0.27
-0.34
-0.43
-0.51
-0.46
-0.25
0.10
0.47
0.69
0.65
0.36
-0.04
-0.38
-0.55
-0.55
-0.48
-0.49
-0.63
-0.90
-1.18
-1.36
-1.35
-1.14
-0.76
-0.29
0.18
0.58
0.83
0.90
0.77
0.50
0.16
-0.14
-0.29
-0.23
0.01
0.35
0.66
0.82
0.78
0.59
0.36
0.19
0.12
0.10
0.03
-0.16
-0.45
-0.71
-0.83
-0.69
-0.35
0.07
0.40
0.52
0.45
0.26
0.10
0.05
0.12
0.24
0.34
0.37
0.30
0.17
0.01
-0.13
-0.22
-0.24
-0.19
-0.08
0.07
0.18
0.18
0.02
-0.33
-0.77
-1.21
-1.50
-1.56
-1.40
-1.08
-0.72
-0.41
-0.19
-0.03
0.11
0.25
0.39
0.48
0.50
0.46
0.37
0.30
0.27
0.27
0.29
0.31
0.32
0.34
0.40
0.50
0.63
0.74
0.77
0.66
0.40
0.03
-0.33
-0.55
-0.53
-0.27
0.16
0.61
0.93
1.03
0.88
0.57
0.18
-0.20
-0.50
-0.68
-0.74
-0.68
-0.54
-0.35
-0.19
-0.10
-0.09
-0.15
-0.22
-0.24
-0.16
0.03
0.33
0.70
1.04
1.26
1.28
1.04
0.57
-0.02
-0.58
-0.97
-1.07
-0.91
-0.61
-0.32
-0.16
-0.15
-0.22
-0.26
-0.17
0.06
0.35
0.56
0.59
0.43
0.18
0.04
0.23
0.83
1.75
2.68
3.26
3.14
2.24
0.84
-0.47
-0.97
-0.20
1.82
4.46
6.71
7.58
6.61
4.17
1.38
-0.33
0.08
2.72
6.57
9.95
11.23
9.73
6.10
1.91
-0.95
-1.19
1.49
6.55
13.01
19.43
23.59
22.42
12.94
-5.82
-31.15
-56.58
-73.98
-77.28
-65.51
-43.45
-19.22
-0.25
10.02
12.80
12.06
11.39
11.98
12.64
11.49
7.92
3.16
-0.51
-1.27
1.14
5.38
9.19
10.71
9.29
5.75
1.79
-0.82
-1.11
0.80
3.78
6.36
7.39
6.50
4.19
1.51
-0.51
-1.20
-0.56
0.85
2.25
3.00
2.81
1.87
0.64
-0.35
-0.75
-0.49
0.22
1.02
1.58
1.75
1.57
1.22
0.88
0.66
0.58
0.57
0.56
0.48
0.30
0.03
-0.30
-0.60
-0.78
-0.76
-0.54
-0.20
0.11
0.25
0.15
-0.15
-0.55
-0.93
-1.21
-1.37
-1.37
-1.18
-0.81
-0.31
0.19
0.53
0.60
0.42
0.10
-0.19
-0.36
-0.39
-0.32
-0.22
-0.10
0.03
0.20
0.39
0.56
0.63
0.58
0.43
0.29
0.23
0.33
0.55
0.84
1.11
1.26
1.28
1.17
0.99
0.83
0.72
0.69
0.68
0.65
0.54
0.33
0.08
-0.16
-0.32
-0.40
-0.39
-0.35
-0.32
-0.32
-0.37
-0.46
-0.59
-0.75
-0.91
-1.03
-1.05
-0.96
-0.73
-0.44
-0.16
0.03
0.11
0.08
-0.01
-0.11
-0.17
-0.17
-0.11
-0.02
0.07
0.15
0.20
0.22
0.23
0.23
0.23
0.22
0.16
0.04
-0.11
-0.25
-0.31
-0.29
-0.21
-0.14
-0.12
-0.17
-0.26
-0.34
-0.36
-0.30
-0.17
0.01
0.18
0.31
0.37
0.34
0.24
0.07
-0.11
-0.24
-0.24
-0.09
0.18
0.46
0.60
0.51
0.22
-0.14
-0.35
-0.28
0.05
0.51
0.90
1.09
1.07
0.92
0.75
0.63
0.55
0.46
0.35
0.22
0.11
0.07
0.08
0.09
0.05
-0.10
-0.32
-0.55
-0.71
-0.77
-0.75
-0.70
-0.67
-0.66
-0.64
-0.56
-0.41
-0.24
-0.13
-0.09
-0.12
-0.13
-0.05
0.11
0.26
0.31
0.16
-0.15
-0.53
-0.82
-0.93
-0.82
-0.54
-0.15
0.25
0.58
0.80
0.88
0.82
0.65
0.39
0.12
-0.11
-0.23
-0.22
-0.10
0.08
0.23
0.25
0.13
-0.10
-0.31
-0.43
-0.40
-0.28
-0.16
-0.10
-0.13
-0.18
-0.22
-0.22
-0.20
-0.22
-0.30
-0.40
-0.46
-0.39
-0.21
0.01
0.16
0.18
0.11
0.06
0.15
0.39
0.69
0.87
0.80
0.49
0.04
-0.33
-0.48
-0.38
-0.12
0.16
0.36
0.44
0.45
0.45
0.48
0.52
0.51
0.41
0.23
0.01
-0.17
-0.27
-0.27
-0.24
-0.25
-0.31
-0.39
-0.38
-0.21
0.14
0.55
0.88
0.98
0.80
0.40
-0.07
-0.43
-0.58
-0.49
-0.27
-0.03
0.11
0.10
-0.04
-0.22
-0.33
-0.31
-0.16
0.06
0.27
0.40
0.45
0.45
0.47
0.52
0.59
0.66
0.66
0.56
0.32
-0.04
-0.51
-0.98
-1.34
-1.47
-1.34
-1.03
-0.69
-0.47
-0.41
-0.43
-0.42
-0.28
-0.03
0.22
0.34
0.30
0.15
0.01
-0.02
0.08
0.23
0.31
0.26
0.05
-0.26
-0.59
-0.87
-1.03
-1.05
-0.90
-0.59
-0.17
0.24
0.54
0.65
0.56
0.34
0.14
0.08
0.24
0.59
1.01
1.38
1.57
1.54
1.33
1.03
0.77
0.67
0.76
0.98
1.20
1.23
0.97
0.42
-0.26
-0.83
-1.07
-0.86
-0.25
0.54
1.20
1.52
1.40
0.97
0.50
0.28
0.44
0.93
1.45
1.65
1.28
0.40
-0.61
-1.22
-0.92
0.38
2.35
4.27
5.36
5.13
3.70
1.68
-0.08
-0.83
-0.29
1.42
4.03
7.15
10.06
11.47
9.63
3.25
-7.44
-20.10
-30.78
-35.63
-32.80
-23.51
-11.45
-0.92
5.25
6.80
5.61
4.11
3.85
4.81
5.95
6.19
5.22
3.57
2.14
1.62
2.26
3.77
5.50
6.82
7.28
6.74
5.39
3.71
2.29
1.50
1.48
2.04
2.81
3.63
4.70
6.31
8.19
9.13
7.28
1.24
-8.65
-19.85
-28.48
-31.18
-26.85
-17.33
-6.39
2.26
6.73
7.41
6.24
5.12
4.90
5.27
5.47
5.06
4.30
3.76
3.81
4.37
5.09
5.45
5.35
4.98
4.74
4.86
5.31
5.76
5.87
5.54
4.80
3.98
3.42
3.34
4.17
6.27
9.79
13.73
15.74
12.86
3.29
-11.99
-28.92
-41.94
-46.62
-41.90
-30.53
-17.41
-6.90
-0.84
1.66
2.88
4.67
7.35
10.03
11.58
11.54
10.29
8.58
6.98
5.84
5.47
6.02
7.52
9.63
11.61
12.66
12.15
10.13
7.41
5.03
3.97
4.68
7.12
11.18
16.57
22.66
27.45
27.39
18.62
-0.58
-27.66
-55.69
-75.92
-81.83
-72.30
-52.09
-29.06
-10.17
1.58
7.40
10.50
13.28
15.91
16.88
14.90
10.33
5.24
2.12
2.50
6.09
11.13
15.12
16.04
13.06
6.96
-0.13
-5.82
-8.23
-6.88
-2.83
1.88
5.25
6.24
5.09
3.10
1.74
1.92
3.45
5.19
5.80
4.48
1.48
-2.10
-4.97
-6.26
-5.93
-4.60
-3.06
-1.82
-0.94
-0.18
0.62
1.40
1.91
2.00
1.76
1.51
1.55
1.94
2.50
2.93
3.07
2.90
2.60
2.34
2.22
2.23
2.22
2.08
1.72
1.25
0.79
0.52
0.54
0.86
1.37
2.02
2.78
3.53
3.89
3.33
1.39
-1.93
-5.93
-9.38
-11.03
-10.23
-7.26
-3.18
0.64
3.23
4.28
4.05
3.13
2.01
1.04
0.43
0.32
0.77
1.66
2.63
3.18
3.01
2.12
0.95
0.17
0.34
1.56
3.37
4.95
5.50
4.76
3.07
1.23
0.15
0.37
1.91
4.50
7.77
11.10
13.27
12.40
6.64
-4.51
-19.19
-33.26
-41.87
-41.79
-33.14
-19.41
-5.63
4.09
8.42
8.72
7.57
6.92
7.05
7.03
5.82
3.35
0.61
-1.03
-0.78
1.22
4.01
6.26
7.03
6.15
4.13
1.93
0.42
0.09
0.88
2.25
3.47
3.94
3.44
2.19
0.76
-0.20
-0.25
0.52
1.49
1.83
0.96
-1.10
-3.68
-5.80
-6.59
-5.72
-3.43
-0.41
2.57
4.89
6.15
6.18
5.02
3.04
0.96
-0.27
0.10
2.23
5.43
8.34
9.59
8.46
5.36
1.75
-0.48
-0.00
3.25
7.93
11.87
13.16
11.09
6.64
1.83
-1.10
-0.80
2.87
9.19
17.06
24.97
30.46
29.91
19.59
-2.07
-32.24
-63.36
-85.62
-91.26
-78.41
-52.16
-21.97
2.99
17.79
22.88
22.15
19.64
17.33
15.00
11.77
7.82
4.60
3.89
6.44
11.27
16.21
18.95
18.27
14.48
9.14
4.24
1.21
0.45
1.37
2.84
3.99
4.53
4.92
5.97
8.49
12.98
19.38
26.66
32.21
32.10
22.42
1.66
-27.37
-57.51
-79.61
-86.56
-76.56
-53.79
-26.05
-0.90
17.42
28.51
34.08
35.62
33.39
27.28
18.27
9.38
4.61
7.03
17.10
32.06
46.73
54.76
50.72
32.04
0.91
-35.48
-66.86
-83.62
-81.14
-62.00
-34.78
-9.63
6.64
13.64
16.55
22.22
34.79
52.98
70.40
78.38
69.70
41.86
-1.33
-50.23
-92.19
-115.72
-115.04
-92.25
-56.34
-18.96
10.69
29.29
39.25
45.47
51.41
56.83
58.66
53.95
42.66
28.61
17.97
16.38
26.29
45.80
69.13
88.61
96.72
87.68
58.79
11.22
-49.67
-114.76
-172.65
-212.19
-225.62
-210.77
-171.86
-118.01
-60.08
-7.42
33.90
60.86
72.24
67.89
49.30
20.74
-10.19
-34.24
-43.82
-36.36
-15.55
10.39
32.43
44.71
46.30
40.36
31.64
23.97
19.22
17.62
18.53
21.09
24.36
27.21
28.51
27.40
23.57
17.62
10.96
5.35
2.22
2.11
4.30
7.20
9.03
8.82
6.90
4.76
4.25
6.74
12.64
21.14
30.19
36.26
34.90
22.26
-2.56
-35.71
-68.67
-91.16
-95.68
-81.13
-53.50
-22.90
1.38
14.92
18.97
18.18
16.91
16.74
16.51
14.27
9.47
3.73
-0.22
-0.24
3.81
10.06
15.51
17.62
15.38
9.77
3.08
-2.13
-4.13
-2.70
0.99
5.02
7.65
8.06
6.56
4.28
2.53
2.25
3.56
5.69
7.33
7.23
4.80
0.49
-4.42
-8.28
-9.88
-8.87
-5.82
-1.81
2.12
5.34
7.58
8.72
8.61
7.21
4.88
2.37
0.88
1.29
3.75
7.57
11.56
14.44
15.04
12.60
7.00
-1.02
-9.78
-17.03
-20.78
-20.25
-16.14
-10.35
-4.90
-0.80
2.30
5.57
10.10
16.02
22.09
25.84
24.48
16.16
1.33
-16.77
-32.84
-41.52
-39.90
-29.22
-14.28
-0.97
6.85
9.25
9.62
11.96
17.98
25.76
31.12
30.44
23.24
12.68
3.76
0.77
5.33
16.08
29.61
41.88
49.07
47.66
34.66
8.75
-28.05
-69.41
-105.58
-126.61
-126.48
-105.96
-72.36
-36.09
-6.02
13.92
25.09
31.47
35.88
37.78
33.99
21.76
1.85
-20.44
-37.27
-42.17
-33.51
-15.38
4.41
18.42
22.99
19.52
12.84
8.01
7.58
10.74
14.54
16.08
14.29
10.17
5.94
3.62
4.04
6.54
9.40
10.90
10.12
7.27
3.57
0.55
-0.69
0.05
2.07
4.23
5.54
5.57
4.54
3.13
2.02
1.58
1.74
2.09
2.16
1.67
0.68
-0.47
-1.33
-1.56
-1.18
-0.49
0.05
0.18
-0.03
-0.19
0.10
1.00
2.17
2.98
2.87
1.71
-0.01
-1.33
-1.39
0.19
2.99
5.98
7.90
7.85
5.75
2.41
-0.71
-2.20
-1.37
1.41
4.75
6.95
6.93
4.81
1.80
-0.27
0.02
3.01
7.96
13.55
18.19
20.11
17.58
9.42
-3.95
-19.82
-33.60
-40.55
-38.24
-27.93
-14.19
-2.43
4.08
5.78
6.08
8.62
14.65
21.99
26.54
25.01
17.37
7.02
-0.94
-2.40
4.01
16.65
31.79
45.07
52.37
50.07
35.59
8.52
-28.02
-66.89
-98.50
-114.20
-109.96
-88.30
-57.07
-25.80
-1.43
14.00
22.69
28.49
33.94
38.62
39.54
33.18
17.96
-4.09
-27.44
-45.06
-51.39
-44.89
-28.94
-10.17
4.75
12.31
13.35
11.77
11.61
14.39
18.52
20.77
18.85
13.09
6.28
1.87
2.02
6.46
12.80
17.77
18.87
15.51
9.15
2.47
-1.88
-2.52
0.14
4.26
7.62
8.78
7.61
5.29
3.43
3.26
5.22
9.08
13.75
17.53
18.01
12.86
1.28
-14.92
-31.25
-42.28
-44.39
-37.73
-26.11
-14.88
-7.84
-5.38
-4.98
-3.40
0.79
6.35
10.52
11.15
8.24
3.87
0.77
0.55
3.11
6.96
10.10
11.13
9.73
6.49
2.56
-0.68
-2.41
-2.39
-1.11
0.44
1.30
0.97
-0.34
-1.83
-2.54
-1.90
-0.00
2.36
4.14
4.54
3.39
1.31
-0.86
-2.21
-2.34
-1.35
0.31
2.17
3.94
5.32
5.88
5.08
2.60
-1.29
-5.53
-8.59
-9.26
-7.25
-3.44
0.60
3.44
4.50
4.15
3.30
2.67
2.43
2.23
1.66
0.66
-0.45
-1.11
-0.97
-0.11
1.18
2.24
2.65
2.27
1.29
0.16
-0.67
-0.90
-0.53
0.18
0.81
1.06
0.80
0.16
-0.59
-1.13
-1.30
-1.12
-0.77
-0.47
-0.35
-0.37
-0.41
-0.30
0.04
0.52
0.97
1.22
1.15
0.82
0.37
-0.02
-0.24
-0.27
-0.23
-0.22
-0.30
-0.48
-0.66
-0.77
-0.76
-0.64
-0.47
-0.29
-0.10
0.13
0.40
0.69
0.90
0.97
0.84
0.56
0.21
-0.08
-0.24
-0.25
-0.16
-0.05
0.03
0.05
0.03
0.00
0.01
0.04
0.10
0.16
0.19
0.18
0.12
0.05
-0.03
-0.09
-0.11
-0.11
-0.09
-0.09
-0.14
-0.26
-0.42
-0.60
-0.74
-0.84
-0.93
-0.99
-1.04
-1.00
-0.83
-0.53
-0.14
0.25
0.56
0.74
0.80
0.79
0.75
0.71
0.66
0.61
0.54
0.47
0.38
0.27
0.10
-0.13
-0.38
-0.59
-0.67
-0.57
-0.33
-0.06
0.11
0.10
-0.06
-0.27
-0.43
-0.49
-0.48
-0.46
-0.43
-0.38
-0.23
0.03
0.35
0.61
0.73
0.68
0.54
0.41
0.36
0.35
0.32
0.19
-0.03
-0.25
-0.37
-0.32
-0.14
0.05
0.12
0.03
-0.18
-0.37
-0.40
-0.24
0.09
0.45
0.73
0.88
0.91
0.92
0.94
1.00
1.05
1.04
0.92
0.71
0.43
0.12
-0.20
-0.50
-0.75
-0.92
-0.95
-0.79
-0.49
-0.10
0.26
0.48
0.54
0.44
0.27
0.10
-0.03
-0.10
-0.17
-0.29
-0.50
-0.77
-1.04
-1.23
-1.27
-1.15
-0.93
-0.69
-0.55
-0.51
-0.53
-0.52
-0.38
-0.08
0.32
0.70
0.96
1.04
0.97
0.81
0.65
0.54
0.48
0.46
0.49
0.56
0.67
0.80
0.88
0.85
0.64
0.27
-0.18
-0.58
-0.80
-0.77
-0.54
-0.23
-0.01
0.02
-0.14
-0.41
-0.67
-0.84
-0.95
-1.08
-1.27
-1.47
-1.53
-1.29
-0.72
0.04
0.73
1.09
1.00
0.57
-0.00
-0.45
-0.64
-0.56
-0.32
-0.05
0.15
0.26
0.32
0.41
0.56
0.78
1.02
1.19
1.20
1.00
0.66
0.28
0.01
-0.09
-0.03
0.10
0.19
0.17
0.07
-0.03
-0.03
0.08
0.27
0.44
0.47
0.32
0.01
-0.34
-0.61
-0.68
-0.50
-0.14
0.28
0.61
0.75
0.66
0.39
0.03
-0.32
-0.62
-0.84
-1.00
-1.06
-1.03
-0.87
-0.61
-0.30
-0.01
0.19
0.24
0.17
0.01
-0.17
-0.28
-0.31
-0.22
-0.05
0.18
0.44
0.68
0.85
0.91
0.88
0.81
0.73
0.64
0.52
0.31
0.01
-0.31
-0.52
-0.52
-0.31
0.01
0.29
0.40
0.33
0.15
-0.06
-0.26
-0.47
-0.71
-0.96
-1.14
-1.17
-1.01
-0.71
-0.36
-0.06
0.16
0.27
0.28
0.20
0.07
-0.09
-0.21
-0.24
-0.18
-0.08
0.02
0.09
0.13
0.21
0.35
0.53
0.72
0.84
0.83
0.70
0.50
0.27
0.08
-0.05
-0.07
-0.00
0.14
0.30
0.41
0.44
0.37
0.21
0.00
-0.23
-0.44
-0.61
-0.66
-0.56
-0.28
0.11
0.48
0.68
0.61
0.32
-0.05
-0.31
-0.35
-0.18
0.07
0.23
0.21
0.02
-0.24
-0.47
-0.61
-0.66
-0.66
-0.63
-0.56
-0.44
-0.28
-0.11
0.03
0.13
0.19
0.25
0.32
0.40
0.45
0.43
0.35
0.21
0.05
-0.10
-0.21
-0.27
-0.26
-0.18
-0.05
0.10
0.21
0.24
0.20
0.13
0.06
0.01
-0.01
-0.05
-0.11
-0.19
-0.23
-0.18
-0.04
0.13
0.27
0.32
0.28
0.18
0.05
-0.08
-0.20
-0.29
-0.32
-0.25
-0.08
0.16
0.37
0.46
0.39
0.17
-0.10
-0.34
-0.47
-0.50
-0.46
-0.42
-0.39
-0.40
-0.42
-0.42
-0.37
-0.27
-0.14
-0.03
0.02
-0.01
-0.11
-0.20
-0.19
-0.02
0.28
0.62
0.86
0.88
0.68
0.37
0.11
0.03
0.13
0.30
0.40
0.35
0.16
-0.07
-0.23
-0.30
-0.29
-0.24
-0.16
-0.05
0.13
0.35
0.54
0.60
0.48
0.18
-0.23
-0.60
-0.83
-0.83
-0.61
-0.24
0.15
0.43
0.49
0.34
0.04
-0.29
-0.54
-0.67
-0.68
-0.60
-0.48
-0.32
-0.13
0.10
0.34
0.56
0.70
0.74
0.64
0.44
0.18
-0.07
-0.23
-0.27
-0.19
-0.05
0.10
0.26
0.41
0.54
0.64
0.66
0.56
0.35
0.07
-0.17
-0.32
-0.35
-0.32
-0.28
-0.28
-0.29
-0.28
-0.19
-0.05
0.07
0.09
-0.05
-0.28
-0.51
-0.63
-0.60
-0.46
-0.31
-0.23
-0.22
-0.20
-0.10
0.11
0.37
0.57
0.60
0.48
0.26
0.09
0.02
0.07
0.16
0.21
0.14
-0.03
-0.24
-0.39
-0.42
-0.32
-0.16
-0.02
0.02
-0.05
-0.17
-0.25
-0.18
0.04
0.34
0.61
0.72
0.64
0.45
0.23
0.06
-0.06
-0.21
-0.45
-0.78
-1.10
-1.27
-1.19
-0.87
-0.42
0.02
0.31
0.42
0.38
0.29
0.25
0.30
0.44
0.61
0.72
0.73
0.61
0.42
0.23
0.12
0.08
0.11
0.14
0.15
0.16
0.21
0.31
0.43
0.48
0.38
0.12
-0.23
-0.53
-0.63
-0.51
-0.21
0.13
0.37
0.45
0.37
0.22
0.10
0.09
0.16
0.27
0.32
0.29
0.19
0.11
0.10
0.19
0.29
0.30
0.14
-0.18
-0.55
-0.83
-0.92
-0.81
-0.56
-0.29
-0.07
0.06
0.09
0.04
-0.08
-0.27
-0.48
-0.68
-0.80
-0.80
-0.64
-0.36
0.00
0.39
