1448209070.00
64.000000
-0.00
-0.00
-0.00
-0.00
-0.00
-0.00
-0.00
-0.00
-0.00
-0.00
0.00
0.01
0.01
-0.00
-0.03
-0.05
-0.05
0.00
0.13
0.36
0.66
1.01
1.37
1.72
2.06
2.40
2.79
3.24
3.80
4.42
5.06
5.66
6.20
6.68
7.15
7.68
8.31
9.14
10.09
11.04
11.88
12.56
13.14
13.76
14.65
15.96
17.91
20.32
22.90
25.38
27.58
29.57
31.68
34.32
37.81
42.54
48.15
54.10
59.83
64.97
69.58
74.14
79.34
85.71
93.76
103.00
112.62
121.73
129.77
136.75
143.30
150.75
157.77
166.64
177.95
191.79
206.97
220.57
228.25
225.36
208.53
176.87
132.76
80.05
23.07
-34.94
-92.44
-149.16
-205.23
-260.37
-313.74
-363.87
-409.83
-450.91
-486.50
-515.74
-537.23
-549.22
-549.96
-538.37
-514.21
-478.67
-433.88
-382.45
-327.02
-269.84
-212.63
-156.66
-102.96
-52.38
-5.91
35.59
71.46
101.39
125.53
144.36
158.59
168.94
176.04
180.33
182.12
181.62
179.09
174.85
169.26
162.72
155.58
148.13
140.54
132.92
125.28
117.65
110.03
102.42
94.89
87.50
80.37
73.60
67.26
61.36
55.79
50.43
45.14
39.86
34.68
29.79
25.41
21.69
18.61
15.94
13.35
10.52
7.33
3.92
0.68
-1.95
-3.66
-4.49
-4.83
-5.27
-6.38
-8.39
-11.08
-13.85
-16.04
-17.16
-17.17
-16.52
-15.85
-15.85
-17.06
-19.74
-23.75
-28.44
-32.46
-33.89
-30.70
-21.62
-7.00
10.90
28.44
41.93
49.06
49.67
45.57
39.43
33.49
28.80
25.29
22.37
19.70
17.38
15.81
15.12
15.00
14.79
13.78
11.74
9.09
6.51
4.80
4.35
5.00
6.16
7.07
7.15
6.28
4.85
3.54
3.04
3.64
5.14
6.94
8.35
8.84
8.33
7.07
5.53
4.20
3.36
3.14
3.49
4.30
5.41
6.67
7.94
9.13
10.23
11.25
12.20
13.11
13.91
14.50
14.75
14.52
13.71
12.23
10.13
7.31
3.88
0.06
-3.82
-7.46
-10.61
-13.17
-15.19
-16.82
-18.21
-19.36
-20.12
-20.20
-19.31
-17.33
-14.41
-11.01
-7.71
-5.09
-3.48
-2.95
-3.26
-4.03
-4.89
-5.60
-6.06
-6.31
-6.43
-6.47
-6.41
-6.20
-5.80
-5.27
-4.75
-4.45
-4.47
-4.73
-4.99
-4.97
-4.54
-3.88
-3.34
-3.29
-3.85
-4.86
-5.92
-6.66
-6.86
-6.56
-6.00
-5.45
-5.14
-5.19
-5.69
-6.66
-7.95
-9.26
-10.11
-9.99
-8.55
-5.68
-1.59
3.33
8.51
13.27
17.05
19.53
20.66
20.63
19.76
18.41
16.84
15.18
13.46
11.69
9.95
8.35
7.02
6.02
5.30
4.71
4.09
3.37
2.60
1.94
1.52
1.29
1.05
0.48
-0.68
-2.50
-4.80
-7.20
-9.35
-10.99
-12.11
-12.83
-13.37
-13.94
-14.74
-16.00
-17.85
-20.23
-22.76
-24.74
-25.34
-23.93
-20.33
-14.95
-8.61
-2.21
3.56
8.33
12.04
14.77
16.61
17.59
17.77
17.24
16.21
14.91
13.57
12.37
11.42
10.68
10.10
9.56
9.04
8.55
8.19
8.00
7.91
7.71
7.16
6.13
4.66
2.95
1.23
-0.42
-2.00
-3.59
-5.26
-6.94
-8.56
-10.08
-11.65
-13.54
-15.96
-18.92
-22.11
-24.92
-26.62
-26.61
-24.59
-20.62
-15.12
-8.72
-2.08
4.18
9.61
13.86
16.74
18.21
18.39
17.57
16.20
14.73
13.53
12.79
12.45
12.26
12.00
11.50
10.80
10.04
9.43
9.04
8.83
8.63
8.32
7.85
7.27
6.63
5.90
4.94
3.57
1.73
-0.44
-2.65
-4.60
-6.12
-7.23
-8.15
-9.13
-10.35
-11.91
-13.81
-16.01
-18.48
-21.04
-23.30
-24.63
-24.39
-22.16
-17.97
-12.30
-6.01
0.05
5.23
9.22
12.02
13.75
14.55
14.54
13.85
12.68
11.34
10.09
9.11
8.42
7.95
7.58
7.25
6.93
6.62
6.26
5.76
5.02
3.96
2.63
1.16
-0.32
-1.75
-3.18
-4.75
-6.55
-8.53
-10.55
-12.43
-14.08
-15.53
-16.93
-18.44
-20.23
-22.39
-25.05
-28.29
-32.10
-36.21
-40.05
-42.81
-43.66
-42.11
-38.10
-32.15
-25.05
-17.68
-10.66
-4.29
1.45
6.75
11.80
16.66
21.28
25.49
29.11
32.01
34.14
35.49
36.10
36.02
35.32
34.11
32.52
30.78
29.06
27.49
26.03
24.55
22.81
20.66
18.08
15.26
12.46
9.90
7.71
5.80
4.05
2.33
0.58
-1.21
-3.10
-5.23
-7.82
-10.98
-14.58
-18.19
-21.19
-22.87
-22.72
-20.61
-16.76
-11.76
-6.37
-1.26
3.12
6.59
9.21
11.11
12.36
12.94
12.81
12.02
10.81
9.56
8.66
8.32
8.49
8.92
9.26
9.28
8.91
8.25
7.45
6.64
5.90
5.25
4.67
4.09
3.40
2.44
1.08
-0.68
-2.68
-4.65
-6.36
-7.67
-8.68
-9.61
-10.74
-12.29
-14.36
-16.92
-19.75
-22.50
-24.64
-25.62
-24.97
-22.55
-18.51
-13.35
-7.68
-2.07
3.03
7.37
10.80
13.23
14.65
15.08
14.68
13.70
12.44
11.16
10.07
9.25
8.68
8.27
7.87
7.37
6.73
5.97
5.20
4.52
4.04
3.76
3.56
3.30
2.78
1.88
0.56
-1.09
-2.94
-4.82
-6.62
-8.30
-9.91
-11.58
-13.44
-15.67
-18.29
-21.21
-24.09
-26.45
-27.75
-27.52
-25.58
-22.03
-17.25
-11.72
-5.95
-0.40
4.53
8.53
11.37
12.99
13.49
13.13
12.24
11.12
10.04
9.15
8.53
8.15
7.95
7.80
7.56
7.15
6.53
5.74
4.91
4.14
3.53
3.10
2.83
2.59
2.20
1.47
0.27
-1.39
-3.34
-5.34
-7.15
-8.72
-10.08
-11.49
-13.18
-15.38
-18.17
-21.41
-24.71
-27.46
-28.96
-28.57
-25.96
-21.23
-14.91
-7.86
-0.94
5.15
10.06
13.74
16.35
18.02
18.89
18.99
18.41
17.32
16.02
14.79
13.86
13.26
12.88
12.51
12.02
11.36
10.63
9.89
9.19
8.52
7.84
7.09
6.32
5.57
4.88
4.17
3.34
2.26
0.85
-0.86
-2.75
-4.64
-6.41
-8.01
-9.48
-11.01
-12.81
-15.10
-17.96
-21.27
-24.64
-27.44
-28.97
-28.64
-26.16
-21.68
-15.71
-9.04
-2.46
3.35
8.00
11.39
13.62
14.92
15.53
15.66
15.44
14.97
14.34
13.72
13.27
13.12
13.29
13.61
13.86
13.81
13.33
12.50
11.48
10.48
9.57
8.71
7.78
6.63
5.23
3.62
1.94
0.31
-1.24
-2.76
-4.39
-6.22
-8.30
-10.60
-13.05
-15.65
-18.46
-21.52
-24.73
-27.68
-29.68
-29.90
-27.72
-23.00
-16.29
-8.62
-1.14
5.24
10.09
13.50
15.74
17.12
17.78
17.80
17.31
16.57
15.90
15.58
15.70
16.07
16.39
16.34
15.73
14.62
13.17
11.67
10.36
9.36
8.63
7.99
7.16
5.89
4.09
1.85
-0.56
-2.86
-4.89
-6.67
-8.40
-10.32
-12.63
-15.39
-18.58
-22.11
-25.79
-29.25
-31.91
-33.01
-31.88
-28.20
-22.22
-14.74
-6.84
0.47
6.54
11.19
14.57
16.92
18.38
19.01
18.83
17.97
16.70
15.40
14.38
13.83
13.69
13.71
13.57
13.06
12.14
10.97
9.82
8.88
8.20
7.64
6.94
5.85
4.24
2.13
-0.29
-2.81
-5.20
-7.36
-9.27
-11.06
-12.93
-15.14
-17.94
-21.41
-25.35
-29.25
-32.29
-33.54
-32.25
-28.16
-21.62
-13.57
-5.15
2.61
9.09
14.09
17.75
20.27
21.77
22.27
21.80
20.56
18.93
17.35
16.19
15.57
15.32
15.11
14.61
13.67
12.39
11.09
10.08
9.53
9.32
9.10
8.45
7.07
4.94
2.32
-0.41
-2.91
-5.05
-6.90
-8.66
-10.56
-12.74
-15.26
-18.20
-21.61
-25.41
-29.28
-32.52
-34.16
-33.31
-29.47
-22.88
-14.44
-5.49
2.72
9.32
14.11
17.35
19.52
21.03
22.01
22.45
22.23
21.40
20.13
18.71
17.43
16.42
15.65
14.96
14.23
13.40
12.55
11.79
11.22
10.81
10.42
9.81
8.75
7.07
4.81
2.14
-0.59
-3.02
-4.92
-6.27
-7.31
-8.39
-9.92
-12.16
-15.21
-19.00
-23.27
-27.56
-31.22
-33.44
-33.48
-30.88
-25.68
-18.52
-10.35
-2.28
4.85
10.55
14.72
17.52
19.22
20.06
20.24
19.92
19.22
18.28
17.20
16.07
14.94
13.86
12.82
11.87
11.02
10.32
9.83
9.54
9.39
9.20
8.78
7.93
6.57
4.73
2.61
0.46
-1.47
-3.09
-4.49
-5.89
-7.57
-9.76
-12.54
-15.92
-19.77
-23.85
-27.76
-30.89
-32.49
-31.86
-28.62
-22.86
-15.29
-6.96
0.99
7.72
12.82
16.33
18.52
19.73
20.18
20.00
19.30
18.26
17.15
16.24
15.67
15.40
15.18
14.72
13.81
12.46
10.91
9.47
8.41
7.74
7.28
6.67
5.59
3.89
1.64
-0.88
-3.33
-5.49
-7.31
-8.93
-10.64
-12.72
-15.39
-18.75
-22.69
-26.89
-30.79
-33.60
-34.50
-32.82
-28.33
-21.35
-12.76
-3.75
4.54
11.25
16.03
18.94
20.30
20.53
19.98
18.92
17.58
16.18
14.96
14.08
13.59
13.39
13.24
12.86
12.11
11.04
9.83
8.76
7.99
7.52
7.15
6.62
5.65
4.09
1.97
-0.57
-3.25
-5.82
-8.02
-9.81
-11.30
-12.75
-14.54
-17.00
-20.28
-24.25
-28.35
-31.75
-33.47
-32.73
-29.18
-23.09
-15.28
-6.84
1.21
8.13
13.60
17.58
20.17
21.48
21.61
20.75
19.22
17.43
15.81
14.64
14.02
13.82
13.84
13.83
13.66
13.25
12.65
11.94
11.18
10.39
9.54
8.55
7.34
5.84
4.01
1.89
-0.45
-2.90
-5.33
-7.61
-9.71
-11.67
-13.62
-15.76
-18.30
-21.34
-24.81
-28.37
-31.43
-33.25
-33.11
-30.56
-25.58
-18.65
-10.63
-2.52
4.84
10.90
15.47
18.61
20.51
21.34
21.28
20.48
19.21
17.73
16.34
15.27
14.61
14.28
14.14
14.00
13.72
13.21
12.51
11.68
10.80
9.89
8.94
7.89
6.67
5.22
3.54
1.66
-0.30
-2.20
-3.93
-5.49
-6.98
-8.57
-10.41
-12.60
-15.18
-18.14
-21.48
-25.06
-28.54
-31.30
-32.52
-31.43
-27.69
-21.59
-13.99
-6.07
1.11
6.93
11.29
14.41
16.59
18.00
18.63
18.45
17.52
16.11
14.58
13.27
12.39
11.90
11.62
11.32
10.84
10.15
9.30
8.41
7.56
6.77
6.03
5.25
4.37
3.34
2.11
0.70
-0.86
-2.51
-4.17
-5.79
-7.37
-8.94
-10.62
-12.54
-14.84
-17.62
-20.81
-24.18
-27.23
-29.30
-29.70
-27.96
-24.01
-18.26
-11.48
-4.60
1.57
6.58
10.36
13.08
15.03
16.36
17.12
17.25
16.77
15.87
14.89
14.17
13.89
13.98
14.13
13.98
13.31
12.18
10.87
9.73
8.94
8.45
8.01
7.32
6.19
4.60
2.69
0.66
-1.35
-3.27
-5.13
-6.97
-8.87
-10.87
-13.03
-15.44
-18.20
-21.33
-24.64
-27.64
-29.60
-29.73
-27.47
-22.80
-16.28
-8.89
-1.72
4.42
9.12
12.40
14.50
15.70
16.19
16.09
15.50
14.61
13.64
12.83
12.30
12.05
11.88
11.55
10.88
9.85
8.64
7.54
6.79
6.47
6.44
6.35
5.84
4.67
2.82
0.47
-2.08
-4.49
-6.55
-8.19
-9.53
-10.79
-12.26
-14.17
-16.64
-19.64
-22.97
-26.27
-28.97
-30.42
-30.03
-27.43
-22.71
-16.38
-9.27
-2.25
4.00
9.13
13.08
15.90
17.63
18.27
17.92
16.83
15.39
14.05
13.11
12.64
12.52
12.51
12.41
12.09
11.52
10.72
9.73
8.61
7.45
6.32
5.28
4.26
3.14
1.78
0.09
-1.86
-3.89
-5.78
-7.37
-8.64
-9.78
-11.04
-12.69
-14.87
-17.62
-20.82
-24.24
-27.45
-29.86
-30.75
-29.52
-25.84
-19.95
-12.57
-4.81
2.20
7.72
11.51
13.82
15.15
15.97
16.53
16.85
16.81
16.34
15.48
14.38
13.26
12.29
11.57
11.09
10.76
10.46
10.10
9.67
9.22
8.80
8.40
7.86
6.96
5.54
3.54
1.19
-1.19
-3.28
-4.95
-6.29
-7.55
-8.98
-10.69
-12.64
-14.73
-16.97
-19.45
-22.32
-25.47
-28.46
-30.51
-30.77
-28.66
-24.13
-17.71
-10.37
-3.12
3.25
8.37
12.19
14.82
16.41
17.04
16.84
16.04
14.98
14.00
13.36
13.07
13.03
12.97
12.70
12.17
11.45
10.70
10.04
9.47
8.93
8.35
7.70
7.03
6.38
5.72
4.95
3.86
2.32
0.34
-1.93
-4.27
-6.46
-8.43
-10.21
-11.89
-13.62
-15.53
-17.78
-20.44
-23.43
-26.37
-28.63
-29.41
-28.09
-24.44
-18.85
-12.16
-5.43
0.45
5.02
8.23
10.37
11.80
12.80
13.45
13.72
13.60
13.13
12.53
12.02
11.81
11.87
12.03
11.98
11.53
10.63
9.52
8.50
7.79
7.40
7.04
6.36
5.09
3.22
1.00
-1.19
-3.07
-4.56
-5.84
-7.21
-8.92
-11.12
-13.82
-16.93
-20.29
-23.59
-26.40
-28.10
-28.07
-25.91
-21.61
-15.68
-8.99
-2.47
3.15
7.54
10.77
13.03
14.56
15.46
15.77
15.56
14.99
14.31
13.74
13.39
13.19
12.99
12.62
11.99
11.14
10.18
9.21
8.30
7.43
6.50
5.38
3.95
2.18
0.18
-1.83
-3.61
-5.01
-6.11
-7.13
-8.41
-10.22
-12.73
-15.94
-19.74
-23.83
-27.69
-30.64
-31.85
-30.73
-27.04
-21.20
-14.07
-6.77
-0.27
4.90
8.66
11.25
13.04
14.28
15.06
15.36
15.15
14.51
13.66
12.85
12.31
12.07
11.97
11.74
11.18
10.26
9.16
8.15
7.44
7.01
6.68
6.14
5.19
3.78
2.04
0.16
-1.68
-3.43
-5.10
-6.79
-8.60
-10.63
-12.98
-15.78
-19.11
-22.93
-26.93
-30.44
-32.60
-32.57
-29.86
-24.60
-17.52
-9.69
-2.22
4.10
8.93
12.35
14.62
15.99
16.64
16.64
16.08
15.11
14.02
13.07
12.46
12.22
12.21
12.16
11.84
11.14
10.14
9.07
8.17
7.54
7.14
6.75
6.10
5.00
3.43
1.49
-0.63
-2.75
-4.74
-6.55
-8.21
-9.78
-11.38
-13.18
-15.39
-18.18
-21.54
-25.13
-28.29
-30.17
-29.99
-27.31
-22.28
-15.61
-8.29
-1.32
4.61
9.24
12.67
15.15
16.85
17.82
18.04
17.55
16.58
15.46
14.49
13.82
13.32
12.72
11.80
10.53
9.11
7.91
7.21
7.11
7.45
7.86
7.97
7.48
6.32
4.61
2.62
0.63
-1.10
-2.49
-3.59
-4.61
-5.81
-7.45
-9.68
-12.53
-15.90
-19.58
-23.23
-26.33
-28.25
-28.36
-26.20
-21.77
-15.53
-8.41
-1.41
4.63
9.32
12.70
15.06
16.69
17.74
18.16
17.91
17.09
15.98
14.99
14.42
14.34
14.54
14.61
14.17
13.07
11.47
9.80
8.50
7.82
7.68
7.69
7.35
6.27
4.34
1.79
-0.99
-3.62
-5.87
-7.77
-9.46
-11.21
-13.24
-15.77
-18.88
-22.51
-26.29
-29.53
-31.36
-30.97
-27.92
-22.40
-15.15
-7.24
0.26
6.63
11.57
15.13
17.50
18.85
19.31
18.96
17.95
16.52
14.95
13.55
12.53
11.94
11.68
11.52
11.22
10.64
9.79
8.84
7.97
7.35
6.94
6.54
5.87
4.69
2.91
0.67
-1.79
-4.21
-6.40
-8.30
-10.02
-11.69
-13.55
-15.77
-18.45
-21.56
-24.80
-27.62
-29.28
-29.08
-26.61
-21.91
-15.51
-8.27
-1.10
5.31
10.62
14.78
17.89
20.04
21.22
21.39
20.62
19.15
17.37
15.68
14.34
13.39
12.75
12.23
11.74
11.27
10.86
10.51
10.12
9.61
8.90
8.00
6.92
5.67
4.22
2.49
0.47
-1.73
-3.93
-6.00
-7.92
-9.82
-11.87
-14.20
-16.86
-19.83
-23.04
-26.35
-29.45
-31.77
-32.60
-31.27
-27.47
-21.46
-13.99
-6.10
1.25
7.46
12.32
15.93
18.45
19.97
20.52
20.16
19.07
17.57
16.06
14.89
14.25
14.08
14.16
14.19
13.93
13.29
12.33
11.20
10.08
9.10
8.28
7.55
6.74
5.65
4.14
2.22
0.04
-2.17
-4.16
-5.81
-7.18
-8.46
-9.87
-11.55
-13.54
-15.81
-18.31
-21.03
-23.81
-26.30
-27.86
-27.76
-25.45
-20.86
-14.51
-7.33
-0.36
5.69
10.51
14.19
16.93
18.82
19.81
19.82
18.90
17.33
15.57
14.06
13.08
12.61
12.42
12.19
11.68
10.78
9.57
8.22
6.89
5.73
4.77
4.02
3.38
2.74
1.95
0.93
-0.39
-1.95
-3.63
-5.31
-6.90
-8.38
-9.86
-11.52
-13.58
-16.20
-19.34
-22.70
-25.62
-27.34
-27.13
-24.62
-19.96
-13.75
-6.87
-0.16
5.77
10.58
14.14
16.46
17.60
17.71
17.04
15.91
14.65
13.51
12.61
11.94
11.45
11.03
10.62
10.14
9.55
8.88
8.21
7.66
7.32
7.15
6.97
6.44
5.28
3.38
0.88
-1.85
-4.38
-6.40
-7.84
-8.92
-9.98
-11.39
-13.47
-16.37
-19.98
-23.89
-27.37
-29.49
-29.41
-26.64
-21.32
-14.21
-6.46
0.79
6.73
11.06
13.93
15.70
16.69
17.06
16.83
16.01
14.70
13.18
11.77
10.74
10.18
9.97
9.89
9.71
9.34
8.82
8.28
7.82
7.44
7.02
6.34
5.25
3.67
1.69
-0.48
-2.57
-4.38
-5.86
-7.10
-8.33
-9.76
-11.53
-13.65
-16.09
-18.85
-21.92
-25.19
-28.29
-30.56
-31.21
-29.57
-25.42
-19.16
-11.66
-4.01
2.86
8.40
12.46
15.22
16.99
18.03
18.47
18.40
17.83
16.87
15.65
14.38
13.23
12.30
11.61
11.12
10.76
10.50
10.35
10.27
10.16
9.86
9.19
8.11
6.68
5.09
3.51
1.99
0.52
-1.06
-2.85
-4.86
-7.00
-9.11
-11.10
-13.00
-14.97
-17.24
-19.96
-23.14
-26.50
-29.51
-31.47
-31.67
-29.61
-25.23
-18.89
-11.37
-3.63
3.43
9.20
13.44
16.28
17.96
18.76
18.82
18.23
17.06
15.50
13.83
12.34
11.25
10.59
10.24
10.03
9.81
9.50
9.09
8.57
7.92
7.11
6.13
4.99
3.73
2.38
0.96
-0.53
-2.09
-3.71
-5.41
-7.19
-9.11
-11.19
-13.46
-15.89
-18.46
-21.12
-23.92
-26.95
-30.30
-33.93
-37.50
-40.38
-41.74
-40.88
-37.60
-32.34
-26.10
-20.01
-14.92
-11.13
-8.41
-6.29
-4.38
-2.52
-0.75
0.93
2.64
4.70
7.48
11.15
15.58
20.35
24.87
28.61
31.22
32.64
33.02
32.67
31.91
30.99
30.01
28.96
27.70
26.07
23.94
21.28
18.21
14.96
11.78
8.86
6.24
3.84
1.47
-1.00
-3.68
-6.62
-9.82
-13.24
-16.69
-19.76
-21.82
-22.19
-20.35
-16.29
-10.52
-3.98
2.30
7.57
11.49
14.19
15.92
16.91
17.20
16.79
15.76
14.38
13.05
12.14
11.77
11.77
11.76
11.35
10.37
8.93
7.35
6.03
5.23
5.01
5.17
5.33
5.09
4.15
2.43
0.09
-2.55
-5.13
-7.39
-9.23
-10.77
-12.24
-13.88
-15.92
-18.51
-21.65
-25.08
-28.24
-30.34
-30.56
-28.36
-23.74
-17.29
-9.96
-2.82
3.42
8.39
12.09
14.70
16.35
17.13
17.09
16.33
15.07
13.61
12.24
11.12
10.28
9.61
8.94
8.12
7.11
6.02
5.03
4.33
4.00
3.98
3.99
3.74
2.95
1.53
-0.41
-2.62
-4.80
-6.73
-8.34
-9.73
-11.08
-12.63
-14.55
-16.99
-19.96
-23.34
-26.75
-29.58
-31.06
-30.46
-27.40
-22.01
-14.98
-7.34
-0.10
6.02
10.75
14.17
16.49
17.82
18.20
17.64
16.28
14.47
12.69
11.34
10.62
10.42
10.41
10.22
9.59
8.47
7.03
5.55
4.31
3.46
2.94
2.58
2.13
1.42
0.38
-0.89
-2.30
-3.75
-5.22
-6.77
-8.49
-10.44
-12.69
-15.29
-18.28
-21.62
-25.05
-28.07
-29.92
-29.92
-27.62
-23.08
-16.84
-9.76
-2.68
3.74
9.14
13.40
16.54
18.60
19.67
19.88
19.47
18.77
18.06
17.55
17.28
17.17
17.05
16.80
16.34
15.65
14.80
13.88
12.98
12.17
11.47
10.83
10.13
9.23
8.00
6.42
4.55
2.55
0.53
-1.50
-3.63
-5.98
-8.65
-11.63
-14.83
-18.11
-21.23
-23.84
-25.43
-25.44
-23.49
-19.55
-14.09
-7.97
-2.11
2.79
6.47
9.03
10.72
11.76
12.27
12.28
11.85
11.12
10.30
9.52
8.82
8.12
7.31
6.33
5.20
4.03
2.92
1.89
0.89
-0.24
-1.61
-3.26
-5.12
-7.05
-8.91
-10.65
-12.30
-13.99
-15.89
-18.15
-20.90
-24.17
-27.73
-31.04
-33.31
-33.64
-31.37
-26.38
-19.20
-10.90
-2.67
4.51
10.12
14.14
16.84
18.54
19.46
19.73
19.39
18.57
17.49
16.41
15.55
14.92
14.41
13.79
12.91
11.77
10.54
9.45
8.64
8.06
7.46
6.52
5.03
2.99
0.61
-1.81
-4.05
-6.06
-7.98
-10.07
-12.61
-15.78
-19.60
-23.77
-27.73
-30.71
-31.89
-30.64
-26.79
-20.66
-13.03
-4.93
2.73
9.28
14.48
18.35
21.10
22.83
23.56
23.29
22.10
20.27
18.26
16.53
15.40
14.91
14.82
14.79
14.54
13.94
13.08
12.10
11.12
10.17
9.15
7.95
6.49
4.77
2.83
0.74
-1.48
-3.86
-6.47
-9.37
-12.55
-16.00
-19.68
-23.51
-27.31
-30.66
-32.87
-33.13
-30.80
-25.76
-18.55
-10.22
-1.97
5.24
11.03
15.44
18.75
21.19
22.79
23.48
23.21
22.13
20.56
18.91
17.53
16.58
16.03
15.66
15.24
14.58
13.67
12.64
11.70
11.00
10.56
10.20
9.65
8.62
6.94
4.60
1.78
-1.26
-4.19
-6.77
-8.89
-10.65
-12.30
-14.16
-16.58
-19.73
-23.57
-27.77
-31.74
-34.65
-35.64
-34.05
-29.67
-22.89
-14.62
-6.00
1.96
8.61
13.78
17.61
20.33
22.03
22.73
22.42
21.26
19.62
17.95
16.69
16.09
16.17
16.70
17.37
17.89
18.06
17.82
17.25
16.49
15.70
14.93
14.16
13.30
12.22
10.85
9.19
7.31
5.33
3.35
1.47
-0.26
-1.89
-3.54
-5.42
-7.78
-10.80
-14.47
-18.51
-22.34
-25.23
-26.48
-25.62
-22.55
-17.60
-11.45
-4.92
1.25
6.53
10.68
13.67
15.63
16.70
17.04
16.81
16.18
15.37
14.59
14.02
13.72
13.64
13.62
13.41
12.82
11.71
10.13
8.24
6.33
4.65
3.31
2.21
1.07
-0.45
-2.54
-5.13
-7.96
-10.64
-12.89
-14.65
-16.10
-17.54
-19.28
-21.53
-24.40
-27.83
-31.56
-35.02
-37.43
-37.89
-35.69
-30.67
-23.34
-14.76
-6.20
1.33
7.27
11.62
14.66
16.75
18.10
